x,y,z,intensity,index
230.89039599999998,-1.5874,19.4709,3598,0.0
230.893799,-1.6107,19.446199,0,0.0
230.89529399999998,-1.5881999999999998,19.5655,2827,0.0
230.89889499999998,-1.5415999999999999,19.441999,0,0.0
230.89970399999999,-1.5324,19.326999999999998,1542,0.0
230.906693,-1.5901999999999998,19.574699,0,0.0
230.907196,-1.5455999999999999,19.443899,0,0.0
230.90919499999998,-1.4333,19.378799,2313,0.0
230.912003,-1.5564,19.459801,1799,0.0
230.923996,-1.3217999999999999,20.732201,2827,0.0
230.92439299999998,-1.3074999999999999,20.691799,0,0.0
230.92460599999998,-1.5665,19.435800999999998,0,0.0
230.927505,-1.535,20.4786,3084,0.0
230.930603,-1.5473,19.473800999999998,0,0.0
230.932693,-1.321,20.642098999999998,0,0.0
230.93469199999998,-1.5886,20.493299,4112,0.0
230.93769799999998,-1.5997999999999999,24.0688,4883,0.0
230.939301,-1.6358,19.523001,0,0.0
230.942902,-1.3678,20.661199999999997,2313,0.0
230.944504,-1.3199999999999998,20.721901,0,0.0
230.946396,-1.1904,20.916,4883,0.0
230.94889799999999,-1.4164999999999999,19.407301,3084,0.0
230.950897,-1.2034,20.6987,3598,0.0
230.95230099999998,-1.508,19.467299999999998,3341,0.0
230.952499,-1.6016,19.4014,15163,0.0
230.952499,-1.4276,24.229,0,0.0
230.95370499999999,-1.3981999999999999,24.0065,0,0.0
230.95680199999998,-1.0508,20.884899,0,0.0
230.961197,-1.1851,20.816499999999998,3598,0.0
230.962006,-1.5287,19.343201,2313,0.0
230.965195,-1.6481,19.454399,1028,0.0
230.965195,-1.5837999999999999,24.437901,3341,0.0
230.966095,-1.4546999999999999,20.705799,0,0.0
230.96719399999998,-1.6139,23.969101,3598,0.0
230.96809399999998,-1.248,20.941699999999997,6168,0.0
230.968796,-1.4796,24.2316,10537,0.0
230.96899399999998,-1.4218,20.760400999999998,2827,0.0
230.970001,-1.2721,20.7931,3084,0.0
230.97169499999998,-1.5706,24.4839,3084,0.0
230.97500599999998,-1.5521,19.5525,4112,0.0
230.976196,-1.4408999999999998,20.7323,4626,0.0
230.979401,-1.5458999999999998,24.562200999999998,7453,0.0
230.98080399999998,-1.2923,20.7197,3084,0.0
230.982101,-1.2855999999999999,20.8435,1799,0.0
230.983002,-1.3592,24.003099,4883,0.0
230.98350499999998,-1.2494999999999998,20.670299999999997,3855,0.0
230.986603,-1.6854,20.4699,2827,0.0
230.986694,-1.5532,24.492200999999998,8738,0.0
230.987,-1.5582,19.545401,0,0.0
230.988205,-1.49,24.037900999999998,2056,0.0
230.98930399999998,-1.6715,24.5028,3084,0.0
230.990005,-0.6224,4.2649,3084,0.0
230.990295,-1.4216,24.443001,10023,0.0
230.993103,-1.6205999999999998,19.608299,2827,0.0
230.99389599999998,-0.985,20.891700999999998,8995,0.0
230.994095,-1.2468,20.9084,2313,0.0
230.994598,-0.5645,20.7833,17990,0.0
230.995193,-1.6455,19.578501,0,0.0
230.995193,-0.6927,20.9137,1285,0.0
230.995804,-1.4932999999999998,24.0798,0,0.0
230.996094,-1.1744999999999999,24.152399,3598,0.0
230.99830599999999,-0.7223999999999999,20.717399999999998,3341,0.0
230.99929799999998,-1.6213,19.531601,1285,0.0
231.00010699999999,-1.6239,19.5093,2313,0.0
231.00010699999999,-0.6403,4.2013,5140,0.0
231.00199899999998,-1.6652,19.6068,0,0.0
231.002106,-1.5654,24.5373,0,0.0
231.002502,-0.4563,20.728099999999998,8995,0.0
231.003494,-1.3385,21.0107,2313,0.0
231.00500499999998,-0.7021,20.561000999999997,1028,0.0
231.00509599999998,-0.9714999999999999,24.207399,1542,0.0
231.00590499999998,-0.45749999999999996,20.726601,0,0.0
231.00599699999998,-0.3867,16.167199999999998,0,0.0
231.006195,-1.573,20.445,3084,0.0
231.006195,-0.5039,20.726801,0,0.0
231.007095,-0.487,20.654899999999998,2313,0.0
231.007294,-1.6312,24.4223,0,0.0
231.007294,-1.3289,20.7241,0,0.0
231.009201,-0.5213,20.7547,0,0.0
231.00990299999998,-0.5853999999999999,4.2839,3855,0.0
231.009995,-1.1993,20.994899999999998,2570,0.0
231.010605,-1.1402999999999999,20.915001,0,0.0
231.010696,-0.8621,20.683999999999997,4112,0.0
231.01229899999998,-1.3803999999999998,24.0075,0,0.0
231.013397,-0.6159,20.66,6425,0.0
231.014297,-1.5496999999999999,19.5504,0,0.0
231.01530499999998,-0.7161,20.760799,4883,0.0
231.01759299999998,-0.4865,20.7749,0,0.0
231.01780699999998,-0.6810999999999999,20.5982,2056,0.0
231.017899,-0.5705,20.7477,2313,0.0
231.018204,-1.1309,20.853299999999997,0,0.0
231.019196,-1.3735,20.642401,2827,0.0
231.020096,-0.5195,20.749599,0,0.0
231.023697,-1.5456999999999999,19.577999,0,0.0
231.02510099999998,-1.5061,24.098800999999998,2827,0.0
231.025299,-1.4903,20.4303,1285,0.0
231.026093,-0.8112999999999999,20.7225,0,0.0
231.026794,-0.2737,20.792600999999998,5397,0.0
231.027603,-1.2262,24.424298999999998,2827,0.0
231.028,-0.9517,20.655898999999998,4112,0.0
231.02900699999998,-0.3963,16.332199,2313,0.0
231.029099,-0.3384,20.643100999999998,5140,0.0
231.03359999999998,-0.7293999999999999,20.5599,2313,0.0
231.03449999999998,-0.8759,20.7703,0,0.0
231.036194,-1.1656,20.881399,3084,0.0
231.03630099999998,-0.8281,20.723399999999998,0,0.0
231.03810099999998,-1.5759999999999998,19.548401,0,0.0
231.03849799999998,-1.6211,19.606700999999997,0,0.0
231.038895,-1.2937999999999998,20.7806,0,0.0
231.039505,-0.8482999999999999,20.733,0,0.0
231.03990199999998,-1.5774,19.564501,0,0.0
231.04029799999998,-1.1481,24.1005,3084,0.0
231.043503,-0.4366,20.643499,7967,0.0
231.044403,-1.6685999999999999,19.6738,6939,0.0
231.044403,-1.3094999999999999,20.7962,2056,0.0
231.044693,-1.672,19.6402,3598,0.0
231.044998,-0.9273,20.856001,2056,0.0
231.045502,-1.5418999999999998,19.5443,4369,0.0
231.04600499999998,-1.6066,19.6217,2056,0.0
231.046799,-1.0446,24.361601,0,0.0
231.047394,-0.7903,20.7316,2313,0.0
231.04750099999998,-0.367,20.6919,0,0.0
231.048004,-1.416,23.9512,4369,0.0
231.04849199999998,-0.6486999999999999,4.263599999999999,4112,0.0
231.04939299999998,-0.2002,20.8346,2313,0.0
231.04960599999998,-0.8876,24.318899,5140,0.0
231.04969799999998,-1.5907,24.542299,3084,0.0
231.050201,-0.2296,20.749599,0,0.0
231.050705,-0.6598999999999999,4.2207,5911,0.0
231.051697,0.055299999999999995,21.023198999999998,2056,0.0
231.051895,-0.3984,20.686999999999998,0,0.0
231.05209399999998,-1.0179,24.379199999999997,4112,0.0
231.052902,-0.12229999999999999,20.638901,3084,0.0
231.053207,-0.7131,20.672000999999998,5140,0.0
231.053406,-0.38899999999999996,16.275101,0,0.0
231.053696,-0.5108,24.4596,3341,0.0
231.054398,-1.6116,19.583799,5911,0.0
231.054596,-1.3474,20.742399,5911,0.0
231.055801,-1.5700999999999998,24.467399999999998,3341,0.0
231.05630499999998,-0.8661,20.714700999999998,4626,0.0
231.057098,-0.08779999999999999,20.9326,4626,0.0
231.057404,-0.979,20.9618,6682,0.0
231.058395,-1.664,19.664301,0,0.0
231.05850199999998,-1.4353,20.5994,2313,0.0
231.05909699999998,-1.0603,20.9184,0,0.0
231.05940199999998,-1.3053,24.0795,3598,0.0
231.05990599999998,-1.6527999999999998,19.6054,0,0.0
231.060104,-0.5828,4.2679,2313,0.0
231.060394,-0.8059999999999999,24.3218,14135,0.0
231.061096,-0.21559999999999999,20.733299,2056,0.0
231.061996,-1.2464,24.018499,3598,0.0
231.06300399999998,-0.5126,20.7302,2313,0.0
231.06309499999998,-0.43479999999999996,20.683398999999998,0,0.0
231.063705,-1.6595,19.662001,0,0.0
231.064301,-1.3775,24.427699999999998,6168,0.0
231.064301,-0.3096,20.790899,0,0.0
231.064606,-1.5724,20.689501,2570,0.0
231.065094,-0.179,20.7621,0,0.0
231.066101,-0.5574,4.2056,2827,0.0
231.066299,-1.6036,19.623500999999997,0,0.0
231.066803,-1.4706,19.534401,2056,0.0
231.067398,0.0516,20.889298999999998,8224,0.0
231.067703,0.1635,20.7213,7196,0.0
231.067902,-0.35619999999999996,20.624599,0,0.0
231.067993,-0.108,20.7994,3598,0.0
231.068207,-0.8552,20.7931,6168,0.0
231.06849699999998,-1.1240999999999999,20.979098999999998,2056,0.0
231.068604,-1.5113999999999999,19.430099,1542,0.0
231.06930499999999,-1.3515,20.415001,1542,0.0
231.069595,-0.7946,20.725400999999998,0,0.0
231.07000699999998,-0.0073,20.781098999999998,6168,0.0
231.070099,-0.3558,16.2348,3855,0.0
231.07029699999998,-0.7837999999999999,20.766700999999998,0,0.0
231.07060199999998,0.087,20.952199999999998,5140,0.0
231.070694,-0.5065999999999999,20.7701,10794,0.0
231.071396,-1.5537999999999998,19.5777,0,0.0
231.07209799999998,-0.9180999999999999,20.7945,2313,0.0
231.072296,-0.13,24.532,2827,0.0
231.072601,-0.254,20.845399999999998,8481,0.0
231.073502,-0.3604,16.298,1542,0.0
231.0737,0.0598,20.975901,0,0.0
231.073807,-1.5179,19.5494,0,0.0
231.074997,0.08539999999999999,20.6957,4626,0.0
231.07519499999998,0.044199999999999996,20.697399,0,0.0
231.07600399999998,-0.23399999999999999,20.754499,0,0.0
231.076294,-0.23829999999999998,20.7409,0,0.0
231.07789599999998,-0.5958,20.718398999999998,0,0.0
231.07789599999998,-0.1986,20.829,0,0.0
231.080399,-0.014499999999999999,20.967899,1799,0.0
231.08120699999998,-1.6663999999999999,19.654899999999998,0,0.0
231.081406,-1.6043999999999998,19.677899999999998,2056,0.0
231.082001,-0.3361,16.2689,0,0.0
231.08329799999998,-0.18189999999999998,20.7612,0,0.0
231.083496,-0.5195,4.2177999999999995,7967,0.0
231.08360299999998,-1.6830999999999998,19.685301,0,0.0
231.08369399999998,-0.8533,20.7013,0,0.0
231.083893,-0.44689999999999996,20.665198999999998,0,0.0
231.084106,-0.2191,20.743299,0,0.0
231.084305,-0.5223,20.719601,0,0.0
231.086105,-0.48,20.758499,0,0.0
231.086197,-1.4394,19.527200999999998,0,0.0
231.08639499999998,-0.1488,20.750899999999998,6939,0.0
231.086899,-1.1756,24.1707,5397,0.0
231.08850099999998,-0.3417,20.685399999999998,0,0.0
231.08940099999998,-1.6947999999999999,19.709498999999997,0,0.0
231.08949299999998,-1.036,24.1105,7196,0.0
231.0905,-0.5035,20.6707,0,0.0
231.09060699999998,-0.8472,20.8344,7196,0.0
231.091095,-0.4952,20.728700999999997,10023,0.0
231.09120199999998,-0.0364,20.773799999999998,0,0.0
231.09150699999998,-0.5514,20.7666,0,0.0
231.09150699999998,-0.2752,20.812099,0,0.0
231.0923,-0.1659,24.581498999999997,2827,0.0
231.092499,-1.4661,19.486601,0,0.0
231.09330699999998,-0.0511,20.938499,7196,0.0
231.095001,-0.9469,20.9732,0,0.0
231.095001,-0.43889999999999996,20.677,0,0.0
231.09519999999998,-1.6612,19.680999999999997,0,0.0
231.095398,-1.5881999999999998,19.5646,771,0.0
231.095398,-1.3502999999999998,24.100201,9252,0.0
231.095703,-0.2963,20.7948,0,0.0
231.09609999999998,-0.2165,20.754101,0,0.0
231.096298,-0.0196,24.5947,0,0.0
231.09640499999998,-1.2961,20.939199,2570,0.0
231.096893,-0.5757,20.669901,5397,0.0
231.097504,-0.1661,20.812799,0,0.0
231.097794,-0.6505,4.3335,3598,0.0
231.10069299999998,-0.2938,16.285101,1542,0.0
231.1008,-0.2577,20.770201,0,0.0
231.101105,-0.7046,20.6511,0,0.0
231.10150099999998,-0.1641,24.527599,4112,0.0
231.1017,-0.7858999999999999,20.750999,0,0.0
231.102203,-0.4861,20.708299999999998,0,0.0
231.10330199999999,-0.44799999999999995,4.364599999999999,1285,0.0
231.104095,-0.4599,20.687400999999998,0,0.0
231.104706,-0.3997,20.768499,0,0.0
231.104706,-0.3217,20.7955,0,0.0
231.10490399999998,-0.08979999999999999,20.888201,0,0.0
231.10519399999998,0.0909,20.705399999999997,0,0.0
231.106293,-1.5334999999999999,24.015499,3341,0.0
231.107193,-1.4183,23.998699,7196,0.0
231.10760499999998,-0.12869999999999998,20.918599999999998,0,0.0
231.107697,-1.6582,19.708099,0,0.0
231.108307,-1.1377,20.906098999999998,2570,0.0
231.108307,-0.36319999999999997,20.680999999999997,8738,0.0
231.108704,-0.6161,20.749399,0,0.0
231.108795,-1.3925999999999998,19.479699999999998,2827,0.0
231.109299,-0.8517,20.6821,8995,0.0
231.10940599999998,-0.28609999999999997,20.7428,2313,0.0
231.10949699999998,-1.4166999999999998,20.843799999999998,0,0.0
231.109695,-1.6698,19.710501,0,0.0
231.109802,-0.3361,20.807199,4369,0.0
231.109894,-1.2123,20.7582,2313,0.0
231.11000099999998,-0.9096,20.6789,3855,0.0
231.11039699999998,-0.6413,4.2432,4626,0.0
231.110504,-0.27649999999999997,20.810399999999998,8224,0.0
231.111099,-0.9669,20.726399999999998,0,0.0
231.11120599999998,-0.6664,20.721201,0,0.0
231.11189299999998,-0.8287,20.7253,0,0.0
231.11250299999998,-1.1003,20.933999999999997,2313,0.0
231.11250299999998,-0.1348,20.958401,2570,0.0
231.1129,-0.2367,20.753201,0,0.0
231.11300699999998,-0.9933,21.082000999999998,2313,0.0
231.11340299999998,-0.7483,20.767599,2570,0.0
231.11390699999998,-0.2445,20.838300999999998,0,0.0
231.11399799999998,-0.6638999999999999,20.7344,2570,0.0
231.11459399999998,-0.8979999999999999,20.706899999999997,2570,0.0
231.1147,-1.5999999999999999,19.648701,2313,0.0
231.11489899999998,-1.6735,19.7712,3341,0.0
231.11489899999998,0.053899999999999997,20.769299999999998,0,0.0
231.115005,-1.0576999999999999,20.921499,0,0.0
231.115295,-0.9667,20.731199,1285,0.0
231.11579899999998,-1.294,20.913401,1799,0.0
231.115906,-1.3348,20.8169,2313,0.0
231.116806,-0.7963,20.7104,0,0.0
231.116806,-0.6667,20.7987,1285,0.0
231.116806,-0.417,20.677699999999998,6682,0.0
231.117096,-1.4672999999999998,19.522199999999998,3084,0.0
231.117203,-1.5717999999999999,19.695100999999998,3341,0.0
231.117203,-0.1527,20.807899,3341,0.0
231.117294,0.0586,21.040899,2570,0.0
231.117401,-1.6668999999999998,19.722400999999998,0,0.0
231.117401,-1.4184999999999999,19.483299,0,0.0
231.118195,-0.5982,20.732499999999998,4626,0.0
231.118393,-1.4505,24.215899999999998,5140,0.0
231.118698,-0.6345,4.215,1285,0.0
231.119293,-0.5923999999999999,21.012698999999998,4112,0.0
231.11939999999998,-1.0272999999999999,20.769699,3855,0.0
231.119598,-1.6909999999999998,19.7024,4883,0.0
231.11979699999998,-1.015,24.528299,4112,0.0
231.11979699999998,-0.7365999999999999,20.657,5654,0.0
231.120407,-0.146,20.893,3084,0.0
231.12100199999998,-0.5321,20.703699,0,0.0
231.12159699999998,-0.8145,20.732799999999997,2570,0.0
231.12190199999998,-0.49329999999999996,20.953198999999998,4112,0.0
231.122101,-1.6837,19.896798999999998,2313,0.0
231.122299,-1.3961999999999999,19.492901,0,0.0
231.122299,-0.5167999999999999,20.688999,0,0.0
231.122299,-0.4236,20.7348,9766,0.0
231.122696,0.13799999999999998,20.723499,3855,0.0
231.122894,-1.2354,20.798401,2056,0.0
231.123199,-1.3413,20.848599999999998,0,0.0
231.12339799999998,-1.1219,20.710199,2313,0.0
231.12399299999998,-0.9682999999999999,20.967199,2827,0.0
231.12399299999998,-0.0525,20.836499999999997,3598,0.0
231.1241,-1.2294,20.7822,0,0.0
231.12460299999998,-0.5167999999999999,4.2786,1285,0.0
231.12510699999999,-0.7474999999999999,20.77,2570,0.0
231.126907,-0.15259999999999999,20.927401,0,0.0
231.127197,-0.3796,20.734301,0,0.0
231.127502,-1.0491,20.8398,0,0.0
231.127594,-1.5493,19.7124,2313,0.0
231.127701,-0.2051,20.7652,5397,0.0
231.127808,-0.2959,20.7148,0,0.0
231.128494,-1.2195,24.176499999999997,14135,0.0
231.128799,-1.288,20.831699,0,0.0
231.128906,-1.2554999999999998,20.8818,2313,0.0
231.12950099999998,-0.0015,20.935399999999998,2313,0.0
231.12969999999999,-0.2625,20.8083,0,0.0
231.130402,0.0083,20.8328,5911,0.0
231.1306,-1.4344,24.290799999999997,3341,0.0
231.13090499999998,-0.3428,20.687799,0,0.0
231.1315,-1.4187999999999998,20.521299,2827,0.0
231.1315,-0.6766,20.814501,0,0.0
231.132996,-1.1295,20.917600999999998,3855,0.0
231.133194,-0.6596,20.7563,0,0.0
231.133896,-0.3574,16.209298999999998,4626,0.0
231.13400299999998,-0.755,20.7649,0,0.0
231.135193,-1.648,19.626699,3341,0.0
231.135605,-0.7472,4.3275,4369,0.0
231.135696,0.0857,20.731099999999998,1799,0.0
231.13580299999998,-0.7571,24.348,3598,0.0
231.136307,-0.5686,4.261,514,0.0
231.13709999999998,-0.0255,20.9443,0,0.0
231.13769499999998,-0.4876,20.6667,2056,0.0
231.137802,-1.411,20.905001,2827,0.0
231.137894,-1.0439,21.0007,3855,0.0
231.138107,-1.6934,24.529799999999998,3598,0.0
231.138306,-0.5094,4.2242999999999995,5140,0.0
231.139008,-0.4841,20.8146,3084,0.0
231.139008,-0.32789999999999997,20.579200999999998,2827,0.0
231.139297,-0.43489999999999995,20.684798999999998,0,0.0
231.13940399999998,-0.5206,20.7061,0,0.0
231.13980099999998,-0.351,20.720599999999997,1799,0.0
231.139999,-0.5704,4.1559,1799,0.0
231.14039599999998,-1.7052999999999998,19.6569,0,0.0
231.140503,-0.6760999999999999,4.4075,3855,0.0
231.140594,-0.5670999999999999,4.215,6168,0.0
231.14120499999999,-0.7888,20.7075,0,0.0
231.141403,-0.7372,4.422499999999999,2827,0.0
231.141693,-0.5577,20.747101,0,0.0
231.1418,-0.30829999999999996,20.7887,0,0.0
231.142303,-1.1832,20.7728,2313,0.0
231.142899,-1.4767,19.503999999999998,0,0.0
231.14370699999998,-1.4462,19.475201,4369,0.0
231.143906,0.033299999999999996,24.586599,3598,0.0
231.14399699999998,-1.4638,19.678698999999998,2570,0.0
231.144104,-0.249,20.725400999999998,0,0.0
231.145096,-0.4415,20.7153,0,0.0
231.14529399999998,-0.3039,20.809601,0,0.0
231.146393,-1.5023,19.589399,0,0.0
231.146698,-1.6003999999999998,23.9681,3341,0.0
231.146896,-1.1936,24.451598999999998,2313,0.0
231.14700299999998,-0.9221999999999999,20.6064,5911,0.0
231.14700299999998,-0.4945,4.1506,3341,0.0
231.147202,-1.2671,20.7183,0,0.0
231.147797,-1.4965,19.6392,3598,0.0
231.148193,-0.2346,20.717599999999997,0,0.0
231.14829999999998,-0.6292,20.719299,0,0.0
231.149094,-1.698,19.9618,2570,0.0
231.149597,-0.0628,20.897301,6939,0.0
231.14970399999999,-0.3666,20.711,0,0.0
231.149994,-0.8618,20.6143,9766,0.0
231.15010099999998,-0.8077,20.750799,0,0.0
231.150497,-0.5625,20.7726,4626,0.0
231.150803,-1.031,20.7698,0,0.0
231.150894,-1.2067999999999999,24.4848,4112,0.0
231.150894,-0.6838,20.752599999999997,0,0.0
231.15159599999998,-1.5313999999999999,19.671801,0,0.0
231.15289299999998,-1.6104999999999998,19.735701,0,0.0
231.1539,-0.5157999999999999,20.963300999999998,0,0.0
231.154099,-0.1774,20.9205,4369,0.0
231.15460199999998,-0.4568,4.234,5911,0.0
231.1548,-1.5786,19.6651,0,0.0
231.15490699999998,-0.7001999999999999,20.693199,0,0.0
231.15559399999998,-0.286,20.723301,0,0.0
231.15580699999998,-0.2777,20.757400999999998,0,0.0
231.15640299999998,-1.6887999999999999,20.1141,1542,0.0
231.15640299999998,-1.3166,20.702999,2313,0.0
231.157196,0.0779,20.6745,4626,0.0
231.15769999999998,-0.472,20.611,6425,0.0
231.158401,-1.5959999999999999,19.6605,0,0.0
231.158798,-1.522,19.682899,0,0.0
231.15890499999998,-1.6120999999999999,24.4914,7196,0.0
231.15890499999998,-0.22449999999999998,20.7791,6682,0.0
231.15949999999998,-0.43129999999999996,4.241499999999999,4369,0.0
231.16130099999998,-0.3503,16.264,0,0.0
231.16160599999998,-0.0846,21.109099999999998,4883,0.0
231.162796,-0.4556,20.7624,0,0.0
231.163605,-1.0426,20.477301,0,0.0
231.163803,-0.528,20.52,2313,0.0
231.163895,-1.6615,19.636999,3598,0.0
231.163895,-0.9516,20.613198999999998,0,0.0
231.164505,-0.7668999999999999,20.700599999999998,0,0.0
231.164795,-1.2473999999999998,20.859099999999998,0,0.0
231.165405,-0.8881,20.6903,0,0.0
231.16610699999998,-0.18989999999999999,20.746098999999997,3598,0.0
231.166306,-0.9581999999999999,20.5891,6425,0.0
231.166702,-0.6548999999999999,20.710501,0,0.0
231.167206,-1.0275999999999998,20.6485,5911,0.0
231.16740399999998,-0.6345999999999999,20.613599999999998,0,0.0
231.168503,-1.0788,20.6684,1799,0.0
231.168793,-0.1646,20.808901,2313,0.0
231.16889999999998,-0.45249999999999996,4.2376,1285,0.0
231.169403,-0.33099999999999996,24.522399999999998,4112,0.0
231.169693,-0.39139999999999997,16.271299,6682,0.0
231.169998,-0.9208999999999999,20.566401,0,0.0
231.170502,-1.3822999999999999,20.8769,3598,0.0
231.170807,-0.3613,16.247298999999998,0,0.0
231.172302,0.0172,21.114200999999998,0,0.0
231.173096,-0.8348,20.697701,0,0.0
231.173599,-0.8661,20.595599999999997,5140,0.0
231.17469799999998,-0.3386,16.278999,0,0.0
231.17529299999998,-0.3613,20.625299,2313,0.0
231.1754,-1.2675999999999998,20.870701,0,0.0
231.175797,-0.5433,20.807899,2056,0.0
231.175995,-0.0759,20.895699999999998,3084,0.0
231.17680399999998,-0.49529999999999996,4.2336,1285,0.0
231.17709399999998,-1.3978,24.129600999999997,4626,0.0
231.177597,-0.654,20.616301,3341,0.0
231.17829899999998,-0.2211,20.8132,4369,0.0
231.178497,-0.9394,20.685699,1542,0.0
231.17919899999998,-0.753,20.7414,0,0.0
231.179306,-0.4546,20.6621,0,0.0
231.180298,-1.5818999999999999,19.7306,0,0.0
231.18040499999998,-0.3432,16.249900999999998,2827,0.0
231.181198,-1.0583,20.5037,0,0.0
231.181503,-0.6363,4.3124,3598,0.0
231.181595,-0.0426,21.000601,3084,0.0
231.18229699999998,-1.7167,19.7444,1799,0.0
231.18400599999998,-0.0486,20.9618,2827,0.0
231.18400599999998,0.36929999999999996,21.196899,2313,0.0
231.184494,-0.7926,20.6668,5140,0.0
231.185394,-0.695,4.4232,1028,0.0
231.185699,-0.0962,21.048401,2827,0.0
231.186096,-0.7968,4.396199999999999,4626,0.0
231.18620299999998,-0.8403999999999999,24.380501,3341,0.0
231.187302,-0.7122999999999999,20.697900999999998,8995,0.0
231.188202,-1.163,24.1283,3341,0.0
231.188507,-0.0684,20.983999,0,0.0
231.18890399999998,-0.7722,20.6364,0,0.0
231.189194,-0.5283,21.011599999999998,3855,0.0
231.189301,-1.0099,20.6227,0,0.0
231.192398,-0.9374,20.790501,3598,0.0
231.192795,-1.0010999999999999,20.762999999999998,1285,0.0
231.192795,-0.0885,20.941401,0,0.0
231.193207,-0.412,16.425501,1028,0.0
231.193298,-0.8060999999999999,20.7041,5654,0.0
231.19340499999998,0.11009999999999999,24.584101,3598,0.0
231.19349699999998,-0.8785999999999999,20.7092,5140,0.0
231.19380199999998,-0.5103,4.3529,1285,0.0
231.194199,-1.5896,19.724501,4883,0.0
231.194504,-0.8805999999999999,20.624201,5654,0.0
231.194794,-0.8473999999999999,20.765300999999997,0,0.0
231.194901,-0.5781999999999999,4.2265999999999995,1028,0.0
231.194901,-0.42569999999999997,20.653,3084,0.0
231.195099,-0.9042,20.529899999999998,3341,0.0
231.19520599999998,-0.49929999999999997,4.2730999999999995,4112,0.0
231.195404,0.1224,20.680901,4626,0.0
231.195694,-0.7697999999999999,4.365,3341,0.0
231.19650299999998,-0.587,4.2566,9766,0.0
231.19679299999999,0.020999999999999998,21.191499999999998,2313,0.0
231.19830299999998,-1.0253999999999999,20.509199,3855,0.0
231.1987,0.00019999999999999998,21.086,3084,0.0
231.199005,-0.2893,20.809400999999998,6425,0.0
231.19959999999998,0.0602,21.102899999999998,0,0.0
231.201202,-0.7324999999999999,4.3664,2313,0.0
231.20140099999998,-1.2428,20.8631,4626,0.0
231.20199599999998,-0.9433999999999999,20.694,0,0.0
231.203293,-0.9548,20.832000999999998,0,0.0
231.20410199999998,-0.017599999999999998,20.9438,8481,0.0
231.204498,-0.6557,4.401,514,0.0
231.204803,-0.1857,20.8235,0,0.0
231.20500199999998,-0.06,21.141001,1285,0.0
231.205399,-0.4582,20.879998999999998,3855,0.0
231.20559699999998,-0.6587,20.767899999999997,2570,0.0
231.205704,-0.5893999999999999,4.0884,1542,0.0
231.205704,-0.314,4.2921,771,0.0
231.20620699999998,-0.6838,20.709298999999998,0,0.0
231.206696,-0.5416,20.5158,2570,0.0
231.207001,-0.755,20.667600999999998,12336,0.0
231.20779399999998,-0.0165,20.994801,4369,0.0
231.20779399999998,0.0779,21.1164,3341,0.0
231.207901,-0.5187999999999999,24.4114,3341,0.0
231.20829799999998,-0.48319999999999996,16.372601,1028,0.0
231.20829799999998,-0.41069999999999995,16.240101,3341,0.0
231.208496,-1.4067999999999998,24.359301,6168,0.0
231.210007,-0.4799,16.3624,0,0.0
231.210007,-0.35359999999999997,20.894399999999997,4369,0.0
231.210602,-0.5468,20.746599,2827,0.0
231.211197,-0.43629999999999997,4.2753,4883,0.0
231.21260099999998,0.19319999999999998,21.199699,2827,0.0
231.212708,-1.5535999999999999,19.7971,3598,0.0
231.21470599999998,-1.5276999999999998,24.474501,1799,0.0
231.215195,-0.5085,20.656499999999998,3084,0.0
231.2155,-1.0718999999999999,20.526799999999998,5140,0.0
231.216904,0.2256,21.168501,4626,0.0
231.21710199999998,-1.2441,20.616198999999998,5911,0.0
231.21710199999998,-1.0909,20.796801,1799,0.0
231.217499,-0.34349999999999997,16.2897,2570,0.0
231.217499,0.26789999999999997,21.198099,0,0.0
231.217606,-1.6083999999999998,19.7987,3341,0.0
231.217697,-0.27249999999999996,24.6607,3855,0.0
231.218796,-1.3661999999999999,20.9067,0,0.0
231.218796,-0.42569999999999997,20.656799,0,0.0
231.22109999999998,-0.7275999999999999,4.2016,3084,0.0
231.221893,-0.6546,4.2238,5397,0.0
231.22199999999998,-0.9466,20.693199,0,0.0
231.22320599999998,-0.6991999999999999,24.3069,4369,0.0
231.22410599999998,-0.4034,4.318099999999999,5654,0.0
231.225098,-1.0486,20.526799999999998,0,0.0
231.225098,-0.5523,4.3362,3855,0.0
231.22560099999998,-0.7513,20.6952,0,0.0
231.22599799999998,0.252,21.206599999999998,0,0.0
231.226105,0.3641,21.243600999999998,2827,0.0
231.226303,-0.3347,4.3133,7710,0.0
231.2267,-0.43939999999999996,20.6224,0,0.0
231.22779799999998,-0.5835,24.490101,3341,0.0
231.22860699999998,-0.644,4.2669,5397,0.0
231.22860699999998,-0.4405,20.6894,0,0.0
231.22869899999998,-0.39749999999999996,20.7167,1285,0.0
231.22869899999998,-0.3444,4.2734,2827,0.0
231.228806,-0.6173,24.318199,3341,0.0
231.229095,0.43779999999999997,21.2162,2827,0.0
231.23010299999999,-1.2290999999999999,20.682199,2827,0.0
231.231003,-0.9467,20.6098,0,0.0
231.231003,-0.4864,20.7619,3341,0.0
231.232193,-0.5291,24.593999999999998,5397,0.0
231.233597,-0.6435,20.694098999999998,8995,0.0
231.233795,-0.2874,21.028399999999998,4112,0.0
231.234207,-0.7934,20.6469,0,0.0
231.235794,-1.3771,20.421801,2827,0.0
231.23590099999998,-0.9177,20.732599,0,0.0
231.236496,-1.0346,20.4631,3341,0.0
231.23719799999998,-0.5811999999999999,20.7209,9252,0.0
231.23800699999998,-0.033299999999999996,21.0327,3598,0.0
231.238495,-0.3631,20.8223,4112,0.0
231.238602,-0.6474,20.650399999999998,3084,0.0
231.2388,-0.2165,20.799999,3341,0.0
231.240097,0.008799999999999999,20.962799,2313,0.0
231.240997,-0.0718,20.9144,3084,0.0
231.240997,0.0213,21.1373,0,0.0
231.241501,-0.3771,16.2467,0,0.0
231.24169899999998,-0.4537,20.944699999999997,3855,0.0
231.241898,-0.37729999999999997,20.703699,0,0.0
231.242096,-0.7298,24.331498999999997,7967,0.0
231.242401,-1.3578999999999999,24.079901,4112,0.0
231.242401,-0.6698999999999999,20.708799,0,0.0
231.242401,-0.6194,20.749900999999998,0,0.0
231.24349999999998,0.1731,21.2668,0,0.0
231.24439999999998,-0.8188,20.677,0,0.0
231.245102,-1.0653,20.5266,0,0.0
231.245102,-0.8784,20.688101,5654,0.0
231.246307,-1.0201,20.5814,6682,0.0
231.24690199999998,-0.7685,4.3366999999999996,3084,0.0
231.24690199999998,0.0655,21.1056,0,0.0
231.246994,-0.5689,16.379499,771,0.0
231.247604,-0.3766,16.330299,0,0.0
231.24830599999999,-1.4609999999999999,19.8433,2570,0.0
231.24839799999998,-0.9954999999999999,20.618401,0,0.0
231.24839799999998,-0.377,20.6584,0,0.0
231.24870299999998,-0.7411,20.683201,0,0.0
231.25050399999998,-0.8237,24.831498999999997,3855,0.0
231.251007,-1.3509,20.418699,0,0.0
231.251801,-0.4967,16.365399999999998,2313,0.0
231.252106,-1.0033999999999998,20.705299,2827,0.0
231.25230399999998,0.10619999999999999,21.144500999999998,3855,0.0
231.252594,-0.6278,21.012898999999997,1542,0.0
231.253098,-0.5587,4.1452,1285,0.0
231.25320399999998,-0.9732999999999999,20.515300999999997,0,0.0
231.253601,-0.4324,20.764601,1542,0.0
231.253693,0.2399,21.1957,2056,0.0
231.253998,-0.4084,16.2868,0,0.0
231.25509599999998,0.37579999999999997,21.128099,3598,0.0
231.255402,-1.6236,19.780399,4626,0.0
231.255402,0.2352,21.082399,3598,0.0
231.255493,-0.3292,4.3324,2570,0.0
231.2556,-0.4144,20.808398999999998,7710,0.0
231.2565,-0.35059999999999997,20.677601,12079,0.0
231.25689699999998,0.2036,21.246499999999997,3084,0.0
231.257904,-0.8195,20.737,4626,0.0
231.257904,0.1138,21.120500999999997,1285,0.0
231.258408,-0.4316,16.3295,2056,0.0
231.258804,-0.3001,21.0203,4112,0.0
231.25900299999998,-1.1097,20.450899,6682,0.0
231.259506,0.18589999999999998,21.365,4883,0.0
231.2603,-0.6312,4.3708,3341,0.0
231.261505,0.2655,21.2124,0,0.0
231.261902,-0.7022999999999999,20.6527,8224,0.0
231.26260399999998,-0.9498,20.5446,5911,0.0
231.262894,-1.3665,24.464399,3084,0.0
231.263107,-1.0272999999999999,24.277099999999997,4626,0.0
231.263199,-0.5538,4.4159,771,0.0
231.263397,-0.6415,4.2578,7453,0.0
231.26359599999998,-0.42069999999999996,4.2709,4626,0.0
231.264893,0.10529999999999999,21.2987,9252,0.0
231.264999,-0.9601999999999999,20.706599999999998,2827,0.0
231.266998,-0.8805999999999999,20.698099,2056,0.0
231.26750199999998,-1.0856999999999999,20.482,6425,0.0
231.26750199999998,-0.4305,4.3667,1285,0.0
231.268005,-1.4862,19.7871,2570,0.0
231.26809699999998,-1.4304,20.2974,2313,0.0
231.26809699999998,-0.3097,4.2618,3341,0.0
231.26809699999998,-0.2408,20.927999,2313,0.0
231.26899699999998,-0.4966,4.2175,4112,0.0
231.269501,0.2201,4.5713,1285,0.0
231.27020299999998,-0.5831999999999999,4.1956,771,0.0
231.270493,-1.6075,20.182699,3084,0.0
231.27119399999998,-0.7695,20.559299,4626,0.0
231.27119399999998,-0.7081999999999999,4.2124,3598,0.0
231.272202,-0.9519,20.638599,2827,0.0
231.272202,-0.7605999999999999,4.0682,4883,0.0
231.272293,-0.3213,20.651999999999997,0,0.0
231.273407,-0.8956,20.546101,5654,0.0
231.273407,-0.5337,4.4098,2827,0.0
231.273697,-0.49939999999999996,4.2814,3598,0.0
231.27380399999998,-0.3739,16.261599999999998,6939,0.0
231.27389499999998,-1.2136,20.9214,9252,0.0
231.27389499999998,-0.9532999999999999,20.586201,4369,0.0
231.27419999999998,-1.7039,20.014601,4369,0.0
231.274399,-0.5699,4.2719,2570,0.0
231.274399,-0.4382,4.4395,5140,0.0
231.274399,-0.36869999999999997,4.273899999999999,9509,0.0
231.274506,-1.3981999999999999,20.557899,3598,0.0
231.274506,-0.9049999999999999,20.7973,3598,0.0
231.274506,-0.07959999999999999,21.497999,2570,0.0
231.274597,-0.3568,20.8542,0,0.0
231.274994,-0.1792,21.051299999999998,2827,0.0
231.275894,0.1396,21.230100999999998,3855,0.0
231.276093,-1.3185,20.461499999999997,2827,0.0
231.276093,0.0282,21.1099,0,0.0
231.276199,-1.3569,20.655898999999998,1028,0.0
231.27699299999998,-0.6714,20.710698999999998,2827,0.0
231.277298,-0.5073,4.3239,771,0.0
231.27749599999999,-1.3545,20.880198999999998,3855,0.0
231.277603,-0.8087,4.2107,3598,0.0
231.277603,0.21,4.5241,1285,0.0
231.27839699999998,-0.4097,4.2044,1028,0.0
231.278595,-1.1495,20.4454,3855,0.0
231.27870199999998,-0.6582,4.1983,3855,0.0
231.27900699999998,-0.8184,4.0934,1799,0.0
231.279404,0.0116,21.0961,2570,0.0
231.27969399999998,-1.5672,19.827499,1285,0.0
231.280197,-1.1221999999999999,20.525999,0,0.0
231.280197,-0.2766,20.991198999999998,0,0.0
231.28080699999998,-0.689,4.2423,1028,0.0
231.281097,-0.1641,20.9091,4369,0.0
231.28179899999998,-0.4623,16.4023,1028,0.0
231.282196,-1.3646,20.294999999999998,4883,0.0
231.282806,0.2632,21.198299,0,0.0
231.283203,-0.9834999999999999,20.579,0,0.0
231.283401,-0.8402999999999999,4.2493,514,0.0
231.283707,-0.5648,4.3508,3855,0.0
231.28390499999998,-0.5202,20.741501,9766,0.0
231.284103,0.29469999999999996,4.5717,8224,0.0
231.284302,-1.676,19.726499999999998,2827,0.0
231.285294,-0.43829999999999997,20.896099,13107,0.0
231.285507,0.1616,4.4306,2570,0.0
231.28630099999998,-0.713,4.1415,1799,0.0
231.286407,-0.9564999999999999,20.5944,0,0.0
231.287003,-0.8805999999999999,4.4148,514,0.0
231.287704,-0.6416,4.1030999999999995,2827,0.0
231.287796,0.4148,21.168599999999998,0,0.0
231.28810099999998,-0.3604,20.8603,0,0.0
231.2883,-0.5105999999999999,16.346701,0,0.0
231.28840599999998,0.3623,21.170600999999998,4369,0.0
231.28849799999998,-0.2525,20.798,4369,0.0
231.28909299999998,0.1656,21.1738,2313,0.0
231.2892,-1.0217,20.541401,0,0.0
231.28930699999998,0.0786,20.9851,5140,0.0
231.289795,-0.6557,4.0318,3084,0.0
231.29020699999998,-0.5144,20.7638,0,0.0
231.29110699999998,-0.3462,20.865199999999998,13107,0.0
231.291504,-0.4174,16.2673,2056,0.0
231.292206,-0.34809999999999997,16.2955,2056,0.0
231.292496,-0.4935,20.881701,3084,0.0
231.293106,-0.2919,4.3407,4883,0.0
231.29330399999998,-0.6244999999999999,4.443099999999999,6425,0.0
231.293396,-0.6026,24.284699999999997,5911,0.0
231.29420499999998,-0.7537999999999999,20.706599999999998,3341,0.0
231.294403,-0.0166,21.1408,3084,0.0
231.294601,-0.312,16.320801,2827,0.0
231.295303,-0.3599,4.1951,2056,0.0
231.29569999999998,0.16069999999999998,19.773899,2570,0.0
231.29600499999998,-0.3351,20.697900999999998,4369,0.0
231.296204,-0.2522,21.078599999999998,6425,0.0
231.29659999999998,-1.0343,20.518998999999997,5140,0.0
231.29659999999998,-0.2954,20.731899,7710,0.0
231.29690599999998,-0.46199999999999997,16.296801,0,0.0
231.29750099999998,-0.7616999999999999,20.7085,0,0.0
231.29870599999998,0.3741,4.5141,1028,0.0
231.29939299999998,0.18159999999999998,4.5805,5911,0.0
231.300995,-0.7877,20.6497,6682,0.0
231.3013,-0.0919,20.955999,2827,0.0
231.30149799999998,-0.7267,20.947499999999998,2570,0.0
231.301697,-0.512,20.740199999999998,0,0.0
231.30209399999998,-0.4074,16.263099999999998,0,0.0
231.302505,-0.4304,20.755301,0,0.0
231.30299399999998,-0.8331999999999999,4.2085,1285,0.0
231.303207,-0.3008,20.947701,3341,0.0
231.30329899999998,-1.3128,20.894500999999998,3598,0.0
231.303696,-0.5786,4.0282,257,0.0
231.303802,-0.412,20.6723,2570,0.0
231.304398,-0.7652,20.759199,0,0.0
231.304596,-1.7142,19.696899,0,0.0
231.304794,-0.43789999999999996,20.861401,0,0.0
231.304794,-0.3585,20.942100999999997,2570,0.0
231.304901,-0.0126,24.625401,1542,0.0
231.305603,-1.6002999999999998,24.296301,3598,0.0
231.305603,-0.0955,4.4466,2827,0.0
231.305801,-0.7890999999999999,20.7122,0,0.0
231.307098,-0.6859,3.8960999999999997,1285,0.0
231.307693,-1.0886,20.522199999999998,0,0.0
231.3078,0.1684,21.252899,0,0.0
231.30909699999998,-1.2426,20.637199,2827,0.0
231.309799,-1.0622,20.487499,0,0.0
231.309799,-0.4972,20.761101,0,0.0
231.30990599999998,-1.0302,20.5655,0,0.0
231.310196,-0.3472,24.6294,3341,0.0
231.31089799999998,-0.6113,20.699301,0,0.0
231.31120299999998,-0.6538999999999999,24.386699999999998,1285,0.0
231.311295,-1.4034,20.3678,2313,0.0
231.31179799999998,-0.5442,4.3982,5654,0.0
231.311905,-0.7022999999999999,4.3174,3341,0.0
231.31210299999998,-1.2388,20.697399,771,0.0
231.31300399999998,-1.1293,20.5641,2827,0.0
231.314301,-0.7374999999999999,4.1255999999999995,2827,0.0
231.315308,0.25429999999999997,21.2229,4112,0.0
231.31539899999999,-0.4296,4.3727,8738,0.0
231.315598,-0.08159999999999999,20.9953,2827,0.0
231.315994,-0.3573,16.287001,2056,0.0
231.316498,-0.4371,4.3997,6425,0.0
231.31880199999998,-1.0185,20.5005,0,0.0
231.319199,-0.8215,20.629998999999998,0,0.0
231.319901,-1.3648,20.446099999999998,0,0.0
231.319901,0.031599999999999996,21.071301,0,0.0
231.320404,-0.37629999999999997,20.6724,0,0.0
231.32060199999998,-0.4448,16.270398999999998,0,0.0
231.320999,-0.6803,20.667801,0,0.0
231.321701,-0.8982,20.569799,6682,0.0
231.32179299999999,0.18059999999999998,21.188499,0,0.0
231.32209799999998,0.055,21.3626,3084,0.0
231.322495,-1.1563999999999999,20.474999999999998,0,0.0
231.3228,-0.6159,4.4197,5397,0.0
231.322906,-0.5821999999999999,4.2763,3855,0.0
231.323196,-0.6759999999999999,24.738701,4112,0.0
231.323196,0.2711,21.311501,2313,0.0
231.323593,0.016999999999999998,21.1264,0,0.0
231.324097,-0.8565999999999999,20.845599999999997,3598,0.0
231.32420299999998,-1.1304999999999998,17.096398999999998,2570,0.0
231.324493,0.218,4.4859,2056,0.0
231.324997,-0.6394,20.658001,11565,0.0
231.324997,0.178,4.5699,3855,0.0
231.32690399999998,-1.4178,20.2817,1028,0.0
231.32699599999998,-1.2856999999999998,20.4168,0,0.0
231.327103,0.2787,21.240499,2313,0.0
231.327393,-0.4208,16.314699,0,0.0
231.327606,-0.7169,4.1989,1799,0.0
231.327606,0.18439999999999998,21.159599,3598,0.0
231.32820099999998,0.45049999999999996,21.2001,4112,0.0
231.32910199999998,-0.704,20.715401,0,0.0
231.329498,-0.7877,20.7379,2827,0.0
231.32969699999998,-0.3817,20.862101,13621,0.0
231.329803,-0.41819999999999996,4.2821,1799,0.0
231.33099399999998,-1.0324,20.504600999999997,0,0.0
231.33149699999998,-0.704,24.310399999999998,4369,0.0
231.33149699999998,0.033,21.0823,5140,0.0
231.331696,-1.0061,21.149099,3341,0.0
231.33180199999998,-0.36629999999999996,20.987399999999997,3341,0.0
231.332199,-0.5827,20.8873,2570,0.0
231.332397,-0.8341,4.211399999999999,4626,0.0
231.332504,-0.9159999999999999,20.5495,3598,0.0
231.332504,-0.7063999999999999,20.764298999999998,0,0.0
231.33360299999998,-1.4293,20.234199999999998,2570,0.0
231.333801,-0.6874,3.8897,2570,0.0
231.334106,-0.696,20.673299999999998,7710,0.0
231.334198,0.35459999999999997,21.354401,10280,0.0
231.33450299999998,-1.571,19.8237,0,0.0
231.33540299999999,-0.46599999999999997,20.745701,13364,0.0
231.335602,0.3095,21.1847,4112,0.0
231.335907,-0.9889,20.567498999999998,2570,0.0
231.336105,0.2507,19.6782,514,0.0
231.336197,-0.3321,21.2181,1799,0.0
231.33669999999998,-0.7857999999999999,20.605301,2570,0.0
231.338898,-0.7404,20.740299,4112,0.0
231.339203,-0.6695,3.8943,2313,0.0
231.33940099999998,0.0557,21.1537,1285,0.0
231.33940099999998,0.5295,21.220501,5654,0.0
231.33970599999998,-1.065,20.5364,0,0.0
231.33999599999999,-0.8396,20.6719,4112,0.0
231.34030199999998,-1.1185,20.5459,0,0.0
231.341599,-0.8049999999999999,20.667999,3341,0.0
231.341705,-0.7371,24.401999999999997,2570,0.0
231.341705,-0.1754,21.115299,0,0.0
231.341995,0.3865,4.4803,4626,0.0
231.34210199999998,-0.6085999999999999,20.671801,5654,0.0
231.34210199999998,-0.4395,16.2512,0,0.0
231.34210199999998,-0.3813,20.908500999999998,0,0.0
231.3423,-0.7757999999999999,4.1449,257,0.0
231.342499,-1.6309,19.7789,1285,0.0
231.342606,0.0349,21.358100999999998,5140,0.0
231.342804,0.20049999999999998,21.283099999999997,2313,0.0
231.343506,0.4624,4.4878,4112,0.0
231.343597,-0.4155,16.313499,1285,0.0
231.343704,0.07239999999999999,21.284401,5911,0.0
231.343796,-0.0652,21.327199999999998,5140,0.0
231.344101,-1.2254,20.4711,2056,0.0
231.34429899999998,-0.6477999999999999,4.192,7196,0.0
231.344406,-0.6699999999999999,20.708599,4883,0.0
231.344406,0.3006,4.5535,5397,0.0
231.345993,-0.5206,4.2709,1285,0.0
231.345993,-0.4347,20.713499,1285,0.0
231.346893,-1.3156999999999999,20.403399999999998,2313,0.0
231.346893,0.2307,4.5655,2570,0.0
231.34699999999998,-0.5508,4.0866999999999996,1028,0.0
231.34699999999998,-0.2719,4.4228,771,0.0
231.347504,-0.7565,4.3002,257,0.0
231.34820599999998,0.3822,4.5374,514,0.0
231.348404,-1.6162999999999998,19.819,0,0.0
231.348404,-0.7892,4.2721,1799,0.0
231.348602,-0.5176999999999999,4.4306,2827,0.0
231.34880099999998,-0.5539999999999999,4.3487,771,0.0
231.349503,-1.7147999999999999,20.080600999999998,3598,0.0
231.349899,-0.6065999999999999,20.701999999999998,0,0.0
231.350204,-0.5585,20.779699,1285,0.0
231.350204,-0.052199999999999996,4.4677999999999995,3341,0.0
231.351105,-1.0261,20.493099,5654,0.0
231.351105,-0.6198,4.0801,771,0.0
231.351105,-0.3485,4.3166,4369,0.0
231.3517,-0.1517,4.463299999999999,6168,0.0
231.35189799999998,-0.43079999999999996,20.683598999999997,3598,0.0
231.353104,-1.0741,20.5592,5911,0.0
231.35330199999999,-0.5699,4.1621999999999995,7967,0.0
231.35360699999998,-1.7042,19.9911,3341,0.0
231.35369899999998,-0.8014,4.2001,1799,0.0
231.353806,0.1201,21.3361,2313,0.0
231.354095,-0.21139999999999998,20.818001,2827,0.0
231.354401,-1.5222,19.895599,3855,0.0
231.35510299999999,-0.0423,4.4509,3341,0.0
231.355392,-0.3631,24.1054,1542,0.0
231.355698,-0.9923,20.6283,4369,0.0
231.355698,-0.1931,20.949499,9509,0.0
231.35580399999998,-1.74,20.0243,4626,0.0
231.356003,0.4577,21.231199,4369,0.0
231.35639999999998,-1.0946,20.452800999999997,4883,0.0
231.357498,-0.43029999999999996,16.2339,7196,0.0
231.357697,-1.0259,24.188,1542,0.0
231.357803,-0.14859999999999998,4.4113,3598,0.0
231.358795,0.21009999999999998,4.6391,771,0.0
231.359894,-0.2787,24.586299999999998,3855,0.0
231.36000099999998,-0.5845,20.7089,0,0.0
231.36129799999998,0.0050999999999999995,4.4879,4883,0.0
231.362396,-0.9887999999999999,20.6033,0,0.0
231.362595,-0.4652,20.865800999999998,0,0.0
231.362595,-0.41709999999999997,20.8417,3855,0.0
231.36300699999998,-1.6056,19.827499,3341,0.0
231.363205,-0.2191,21.045401,6682,0.0
231.363297,-0.7747999999999999,24.298299999999998,15934,0.0
231.363297,-0.5179,20.855801,13621,0.0
231.36390699999998,-0.5549999999999999,20.741198999999998,9252,0.0
231.364105,-0.6359,4.139,6168,0.0
231.364502,-0.586,4.2043,3084,0.0
231.36459399999998,-1.1633,20.525499,5911,0.0
231.36459399999998,-0.212,4.5503,8481,0.0
231.36489899999998,-1.4109,19.9328,4369,0.0
231.36520399999998,-0.3448,4.4218,6425,0.0
231.366302,-1.095,20.5158,3084,0.0
231.36669899999998,-0.2843,21.076798999999998,4883,0.0
231.36700399999998,0.28109999999999996,21.1861,0,0.0
231.367096,-0.6486,3.9549,2056,0.0
231.367294,-0.6411,4.3484,771,0.0
231.367706,-1.187,20.5326,0,0.0
231.36790499999998,0.30779999999999996,4.5150999999999994,4626,0.0
231.368195,-0.5125,4.061,2056,0.0
231.369003,-0.2031,20.805099,0,0.0
231.369095,-1.5039,19.830299,2313,0.0
231.369293,0.1701,4.5089999999999995,3855,0.0
231.36939999999998,-1.3256999999999999,20.362499,3084,0.0
231.36939999999998,-0.17679999999999998,4.4618,4369,0.0
231.369995,-0.35869999999999996,4.2808,4369,0.0
231.37060499999998,-1.0514999999999999,20.537201,0,0.0
231.37069699999998,-1.47,19.843999999999998,1542,0.0
231.37100199999998,-0.5972999999999999,20.755301,0,0.0
231.371796,-1.0756,20.596701,0,0.0
231.371796,-0.3913,16.2896,0,0.0
231.37219199999998,-0.44699999999999995,4.2284999999999995,10537,0.0
231.372604,-1.171,20.6849,5397,0.0
231.372894,-0.49589999999999995,4.2075,4112,0.0
231.37339799999998,0.1042,4.5539,1542,0.0
231.373505,0.4158,4.457,2827,0.0
231.374496,-1.6555,24.2334,10280,0.0
231.37559499999998,0.1148,4.5158,2570,0.0
231.375793,-0.1916,4.4234,1799,0.0
231.375793,0.0026,21.148398999999998,3341,0.0
231.376007,-0.9954999999999999,20.566098999999998,0,0.0
231.376205,-0.3651,20.6751,13364,0.0
231.376297,0.2118,4.3793,2570,0.0
231.37739599999998,-0.36379999999999996,21.081899999999997,1799,0.0
231.377594,-1.3809,20.4366,2313,0.0
231.37789899999999,-1.3622999999999998,20.403098999999997,0,0.0
231.37789899999999,0.4861,21.2516,0,0.0
231.37820399999998,-0.6093999999999999,20.703198999999998,0,0.0
231.378403,-0.2046,21.1008,2827,0.0
231.378693,-0.5185,4.3675,6425,0.0
231.378906,-0.5668,4.0148,2570,0.0
231.37910499999998,-0.235,21.0471,0,0.0
231.379395,0.3509,21.2777,2313,0.0
231.37969999999999,-1.3397999999999999,24.2852,3598,0.0
231.3806,-0.4105,20.694799,0,0.0
231.38099699999998,0.45099999999999996,4.5558,7196,0.0
231.381607,-1.4609999999999999,20.2395,0,0.0
231.382401,0.5679,4.3061,2570,0.0
231.383194,0.4013,4.5501,1028,0.0
231.38369799999998,-0.5811,20.8888,2056,0.0
231.383804,-0.47819999999999996,16.23,2056,0.0
231.38429299999999,-0.6184999999999999,4.2867999999999995,5397,0.0
231.38490299999998,-0.44939999999999997,20.77,0,0.0
231.3853,-0.8762,20.593,0,0.0
231.385605,0.1406,4.55,3341,0.0
231.385696,-0.629,20.926299999999998,3341,0.0
231.38580299999998,-0.43939999999999996,16.246,0,0.0
231.386307,-0.8057,4.2379999999999995,3855,0.0
231.38639799999999,-0.4092,16.2806,0,0.0
231.38670299999998,0.4002,21.259501,2313,0.0
231.386902,0.4695,21.2215,0,0.0
231.38729899999998,0.1122,21.2934,5397,0.0
231.389297,-0.5383,20.8794,0,0.0
231.38949599999998,-0.4245,16.312901,2827,0.0
231.38949599999998,-0.0706,24.8325,3084,0.0
231.389603,-0.856,24.275101,7967,0.0
231.389694,-1.4298,20.3351,0,0.0
231.39039599999998,0.38899999999999996,21.305,0,0.0
231.3909,-0.0867,21.0534,3598,0.0
231.391098,0.39909999999999995,21.359199999999998,0,0.0
231.391998,-0.4487,16.291,0,0.0
231.391998,0.36069999999999997,4.6175999999999995,514,0.0
231.39259299999998,-0.6009,20.746599,3598,0.0
231.39259299999998,0.0056,4.4864,3855,0.0
231.392899,0.1788,21.295099,0,0.0
231.393204,0.3348,21.255899,0,0.0
231.39340199999998,-1.4986,20.209298999999998,4369,0.0
231.39399699999998,-0.7422,20.661500999999998,4369,0.0
231.394699,-0.1886,4.5422,7710,0.0
231.394699,0.5171,21.383301,3855,0.0
231.394806,-0.6522,20.836299999999998,4369,0.0
231.397293,-1.4708999999999999,20.225400999999998,3341,0.0
231.397598,-0.4391,16.271798999999998,0,0.0
231.398697,-0.6012,20.6119,0,0.0
231.39919999999998,-1.1712,20.432899,2570,0.0
231.399597,-1.7168999999999999,20.0623,0,0.0
231.39979599999998,-0.3752,4.2104,1028,0.0
231.400299,-0.144,24.7334,2056,0.0
231.40040599999998,-0.4405,20.865999,5654,0.0
231.400497,-0.4463,20.8435,0,0.0
231.40100099999998,0.3246,21.2959,0,0.0
231.40130599999998,-1.3398999999999999,20.282801,0,0.0
231.401794,-0.4904,16.2687,2570,0.0
231.40199299999998,-1.5252,24.246401,4626,0.0
231.40199299999998,-0.3725,20.826,9509,0.0
231.40220599999998,-1.5655,20.122999,2056,0.0
231.40220599999998,-0.36879999999999996,20.950701,3084,0.0
231.402603,-1.2836999999999998,20.744498999999998,2056,0.0
231.402603,-0.18359999999999999,24.500999,2827,0.0
231.40289299999998,-1.6229,20.048099999999998,5911,0.0
231.403,-0.6463,3.9978,257,0.0
231.40339699999998,-0.6675,4.2035,3855,0.0
231.403503,-0.3326,24.496599,3855,0.0
231.403595,-0.7126,4.301,514,0.0
231.404999,-0.25839999999999996,20.7169,0,0.0
231.405304,0.30019999999999997,21.2437,0,0.0
231.405396,-0.7148,4.2059999999999995,2827,0.0
231.40589899999998,-0.6072,24.5919,5397,0.0
231.406006,-0.1425,21.2167,1028,0.0
231.406097,-0.6865,4.1381,2570,0.0
231.407593,-0.4427,20.8587,0,0.0
231.407593,0.26949999999999996,21.303100999999998,0,0.0
231.407806,-0.4568,16.296699999999998,0,0.0
231.409103,0.5517,21.337601,3598,0.0
231.409393,0.3147,4.4857,2313,0.0
231.409698,-1.3558999999999999,20.4039,11308,0.0
231.410202,-1.2352999999999998,20.468999999999998,4883,0.0
231.410202,-0.9738,20.639601,0,0.0
231.41070599999998,-0.8135,20.6527,4369,0.0
231.41099499999999,-1.7092999999999998,19.9681,0,0.0
231.412094,0.2495,21.226298999999997,4112,0.0
231.41220099999998,-0.4306,20.832000999999998,0,0.0
231.412796,-1.2266,20.333,3084,0.0
231.4133,-0.07039999999999999,21.0942,3341,0.0
231.4133,0.0194,4.4341,6682,0.0
231.4133,0.45649999999999996,4.5051,5911,0.0
231.413605,-0.2898,20.667101,16448,0.0
231.413605,-0.19319999999999998,4.656899999999999,4112,0.0
231.41439799999998,-0.0508,4.4876,4883,0.0
231.414597,-0.1289,4.4214,2313,0.0
231.414703,0.20429999999999998,21.291901,0,0.0
231.41490199999998,0.31629999999999997,21.3039,1285,0.0
231.41499299999998,-0.86,24.3971,1285,0.0
231.415604,-1.2054,20.555099,2570,0.0
231.41580199999999,-0.3192,20.7411,7196,0.0
231.41580199999999,0.059699999999999996,21.277901,2313,0.0
231.416306,-0.1895,4.4348,2056,0.0
231.416397,-0.3286,21.3041,3341,0.0
231.416702,-1.1827999999999999,17.1357,514,0.0
231.416901,-1.6934,19.9771,6682,0.0
231.417892,-0.2872,20.740800999999998,2827,0.0
231.41799899999998,-0.5163,4.27,2827,0.0
231.41859399999998,-0.6346999999999999,4.1373999999999995,3341,0.0
231.41859399999998,-0.44999999999999996,4.1425,4112,0.0
231.418701,0.2595,4.4265,5654,0.0
231.41889999999998,-0.4255,4.259399999999999,4626,0.0
231.419601,0.4508,21.253598999999998,3084,0.0
231.419693,-1.573,24.0861,3341,0.0
231.419998,-0.353,4.4638,1285,0.0
231.42010499999998,-1.7187,19.8601,3341,0.0
231.42010499999998,-0.2933,4.4318,1542,0.0
231.42039499999998,-0.30369999999999997,20.726601,0,0.0
231.42039499999998,0.3792,4.4769,4626,0.0
231.42069999999998,-0.8835,4.2747,257,0.0
231.42100499999998,-0.6003999999999999,4.281,2056,0.0
231.42100499999998,-0.1371,4.4838,2827,0.0
231.42190599999998,0.0029,21.397199999999998,4112,0.0
231.422104,0.34049999999999997,21.356001,0,0.0
231.422394,-0.5291,20.837099,2827,0.0
231.422699,-0.2668,4.4687,257,0.0
231.423203,-1.4105999999999999,19.990600999999998,4369,0.0
231.423203,-0.2079,4.4940999999999995,2313,0.0
231.42349199999998,-0.6192,20.7195,3341,0.0
231.42349199999998,-0.4148,4.2057,2313,0.0
231.423599,-1.2949,20.313999,3855,0.0
231.423904,0.5384,21.190901,2313,0.0
231.424103,-0.86,20.580199999999998,4626,0.0
231.42469799999998,-0.49989999999999996,4.202,3341,0.0
231.42469799999998,-0.0295,4.5946,1799,0.0
231.424896,-1.6296,20.137501,2056,0.0
231.425201,-1.13,18.6003,2313,0.0
231.42550699999998,-0.5627,4.1261,2827,0.0
231.42559799999998,0.3359,21.3388,0,0.0
231.425705,-0.3579,24.094299,3341,0.0
231.42619299999998,-0.31679999999999997,4.4436,3855,0.0
231.42649799999998,-0.3167,20.689899,0,0.0
231.426605,0.016399999999999998,4.3441,4626,0.0
231.4272,-0.5876,4.185,2570,0.0
231.42739899999998,-0.09809999999999999,4.3736,2313,0.0
231.42739899999998,0.15839999999999999,4.648499999999999,3598,0.0
231.42829899999998,0.22999999999999998,19.063101,514,0.0
231.428406,0.249,19.746,1542,0.0
231.428406,0.37479999999999997,21.293301,2827,0.0
231.428497,-0.8423999999999999,20.685399999999998,0,0.0
231.428696,-1.5758999999999999,23.8356,4369,0.0
231.428696,0.0096,4.5652,3855,0.0
231.429001,0.5636,21.4256,0,0.0
231.429398,-0.12739999999999999,25.450599999999998,2827,0.0
231.42950399999998,-0.35319999999999996,20.677099,15163,0.0
231.429901,-0.43739999999999996,16.241198999999998,2056,0.0
231.430298,-0.8811,20.673201,8995,0.0
231.431198,-0.28909999999999997,4.3387,2827,0.0
231.43130499999998,-0.2581,20.814301,8995,0.0
231.43130499999998,0.23729999999999998,21.328501,1285,0.0
231.431595,-1.0905,20.612199999999998,2827,0.0
231.432007,0.37229999999999996,21.288099,0,0.0
231.432602,-1.1429,20.5646,3084,0.0
231.432602,-0.44139999999999996,16.2656,0,0.0
231.432602,0.3101,21.2598,3084,0.0
231.432907,-1.4183999999999999,20.0441,2570,0.0
231.432907,-0.442,20.819401,1285,0.0
231.432907,-0.2155,20.831899999999997,9509,0.0
231.43310499999998,-1.6535,19.976801,0,0.0
231.43319699999998,0.1745,4.4508,6168,0.0
231.433304,0.2259,4.6266,5140,0.0
231.433304,0.5305,21.2866,0,0.0
231.433395,-0.32989999999999997,4.2810999999999995,4369,0.0
231.43350199999998,-0.5806,20.6127,3084,0.0
231.43400599999998,0.0977,4.4962,257,0.0
231.434204,0.17179999999999998,21.320999,8738,0.0
231.43440199999998,-1.0997,20.5357,3855,0.0
231.434494,-0.061,4.4376999999999995,4883,0.0
231.43469199999998,-1.4336,19.948,3341,0.0
231.434799,-1.6956,20.060599999999997,2056,0.0
231.435104,-0.2394,21.120898999999998,4883,0.0
231.435104,0.2825,21.222600999999997,0,0.0
231.435699,-0.8902,24.355801,1285,0.0
231.43589799999998,0.24139999999999998,4.4988,3855,0.0
231.436295,0.46509999999999996,4.5508,1542,0.0
231.4366,-0.9155,20.615399999999998,3341,0.0
231.4366,-0.7611,20.7733,3598,0.0
231.43679799999998,-0.5865,4.3344,2313,0.0
231.437897,0.1697,4.5027,1028,0.0
231.437897,0.2776,4.5408,4626,0.0
231.438293,0.3319,21.291,0,0.0
231.4384,0.0829,4.4395,1285,0.0
231.438507,-1.3511,17.214001,2570,0.0
231.43899499999998,-0.43929999999999997,16.2694,0,0.0
231.43899499999998,0.5514,21.3696,0,0.0
231.43980399999998,-0.9090999999999999,4.114,2056,0.0
231.440094,0.4599,4.422499999999999,1542,0.0
231.44039899999999,0.1175,4.5786,4112,0.0
231.440994,-1.0936,20.534299999999998,0,0.0
231.440994,0.0681,21.1404,2056,0.0
231.441406,-0.6924,4.051699999999999,1285,0.0
231.441498,0.3076,21.3451,0,0.0
231.441803,-0.4542,20.9769,5654,0.0
231.44200099999998,-0.40459999999999996,16.2729,0,0.0
231.442307,-0.0104,21.2927,4626,0.0
231.442398,0.3776,4.4394,1285,0.0
231.442703,0.3064,21.343,0,0.0
231.443207,-1.1222999999999999,20.5249,0,0.0
231.44340499999998,-0.952,20.637698999999998,4369,0.0
231.443695,-1.0509,20.6297,1028,0.0
231.443695,-0.5807,4.3896999999999995,2570,0.0
231.44380199999998,-1.0088,4.142799999999999,2827,0.0
231.444504,-0.3241,4.5396,514,0.0
231.44470199999998,-0.07769999999999999,4.632499999999999,6168,0.0
231.444794,-1.4153,20.368401,6939,0.0
231.444901,-1.5002,20.176901,0,0.0
231.444901,-0.7443,20.8965,3598,0.0
231.444901,0.2525,21.324099999999998,0,0.0
231.444901,0.2764,4.4586,771,0.0
231.445099,-0.8054,4.2767,514,0.0
231.44520599999998,-0.5196999999999999,4.3770999999999995,7710,0.0
231.445404,-1.4899,19.8442,3855,0.0
231.44560199999998,-1.4758,20.1521,3598,0.0
231.445908,-1.2196,22.625899999999998,7453,0.0
231.446106,0.4294,21.4011,4112,0.0
231.446106,0.4773,21.3081,2313,0.0
231.446899,-0.2979,4.63,1542,0.0
231.447006,-1.6239999999999999,24.309400999999998,6682,0.0
231.44740299999998,-1.4778,20.028601,3341,0.0
231.44740299999998,0.4563,25.312901,2056,0.0
231.4478,-0.41669999999999996,20.8939,0,0.0
231.448196,-1.236,17.103201,771,0.0
231.448196,-0.1886,21.138099999999998,0,0.0
231.44839499999998,-0.4375,20.7812,0,0.0
231.44839499999998,0.4962,4.4323999999999995,5140,0.0
231.448593,0.2329,4.564299999999999,5911,0.0
231.448807,-1.4272,20.3864,3598,0.0
231.448807,0.2167,19.1612,2570,0.0
231.44920299999998,-0.4619,20.9044,0,0.0
231.44920299999998,-0.1295,21.133399999999998,2570,0.0
231.45019499999998,0.1759,21.3085,0,0.0
231.450699,-1.736,19.973800999999998,3855,0.0
231.450699,0.3092,19.074499,2313,0.0
231.450897,-0.2554,21.1008,5140,0.0
231.451706,-1.404,19.951401,1799,0.0
231.451706,-0.7189,24.2659,3084,0.0
231.451797,-1.0277,20.558598999999997,4369,0.0
231.453094,-0.5538,20.754600999999997,0,0.0
231.454193,-0.1226,21.2078,1799,0.0
231.45469699999998,-0.7125,24.661699,2313,0.0
231.45500199999998,-0.9056,4.0878,1028,0.0
231.455399,-1.4946,24.056601,3341,0.0
231.455399,-0.2112,20.868799,3341,0.0
231.455399,-0.0468,25.281799,5397,0.0
231.455505,-0.0732,21.152399,4369,0.0
231.456406,-0.602,24.5492,0,0.0
231.456696,-0.4805,4.3549999999999995,3084,0.0
231.457001,-1.1339,20.485599999999998,0,0.0
231.457001,0.2485,4.6087,5654,0.0
231.457199,-0.5448999999999999,4.3986,1028,0.0
231.457306,-1.1884,20.298401,2056,0.0
231.457901,-0.8856999999999999,20.6008,2827,0.0
231.458206,-1.0934,20.624700999999998,4626,0.0
231.458496,0.209,4.4548,1799,0.0
231.45860299999998,-0.44389999999999996,20.888399,6682,0.0
231.458801,-1.4361,20.336599,2570,0.0
231.459198,-1.456,20.119101,2570,0.0
231.459793,-0.0904,21.257400999999998,0,0.0
231.459793,0.43489999999999995,4.4643999999999995,4626,0.0
231.460205,0.2171,21.346901,0,0.0
231.460297,-1.3549,20.258301,0,0.0
231.46040299999999,-0.5539999999999999,20.9128,0,0.0
231.46079999999998,0.48819999999999997,21.458099,4112,0.0
231.46130399999998,-0.48819999999999997,20.728201,5397,0.0
231.46130399999998,-0.3888,4.293699999999999,1542,0.0
231.461594,0.29309999999999997,21.889499999999998,4369,0.0
231.46229599999998,-0.3021,4.6254,2056,0.0
231.462494,-0.48669999999999997,20.865999,7196,0.0
231.46260099999998,-1.1320999999999999,4.0926,8224,0.0
231.462799,-0.6932999999999999,4.2352,1028,0.0
231.46350099999998,-0.5728,20.7854,4369,0.0
231.463898,0.4865,21.683598999999997,5654,0.0
231.46470599999998,-0.8277,25.073999,16191,0.0
231.465103,-1.0975,20.5266,4369,0.0
231.465805,0.0795,21.373199,0,0.0
231.466095,-0.056999999999999995,4.5785,2827,0.0
231.46650699999998,-0.2258,21.1222,5911,0.0
231.466599,-0.431,24.6341,4883,0.0
231.466705,-1.3969,20.268,0,0.0
231.466705,-0.0416,4.378,1028,0.0
231.46679699999999,-0.7162999999999999,4.1152999999999995,1028,0.0
231.46679699999999,-0.44139999999999996,4.2522,4112,0.0
231.466904,0.2648,4.5539,6682,0.0
231.46719399999998,0.39599999999999996,4.5004,4626,0.0
231.467804,-1.6249,19.996401,3084,0.0
231.46800199999998,-0.9771,20.8309,2827,0.0
231.468201,-0.1551,21.121299999999998,3598,0.0
231.46830699999998,0.0474,21.367200999999998,0,0.0
231.46830699999998,0.42779999999999996,4.4539,771,0.0
231.46899399999998,-0.5534,20.8666,7196,0.0
231.469406,-0.4981,16.2714,0,0.0
231.469696,-1.4518,20.063499,3855,0.0
231.470306,0.2643,21.368999,3341,0.0
231.470306,0.5959,21.305799,0,0.0
231.470901,-1.5325,20.0424,0,0.0
231.470901,-0.49689999999999995,4.2751,1285,0.0
231.471298,0.2256,19.099899,0,0.0
231.47169499999998,-0.1971,4.6267,1285,0.0
231.47169499999998,-0.0358,21.315599,2570,0.0
231.47230499999998,-0.0736,21.187599,7710,0.0
231.47230499999998,0.3942,4.4443,4369,0.0
231.472397,-0.5831,20.6145,0,0.0
231.472702,-0.296,21.116899,6168,0.0
231.472794,-1.7370999999999999,20.032899999999998,6168,0.0
231.473404,-1.0273999999999999,4.1015,2313,0.0
231.474304,-0.6269,20.849999999999998,3084,0.0
231.47500599999998,-1.0211999999999999,4.0713,7196,0.0
231.475098,0.3983,21.889699999999998,2056,0.0
231.475296,-1.2058,20.517,6168,0.0
231.475296,-0.7093999999999999,20.786199999999997,6168,0.0
231.4758,0.31329999999999997,4.5611,4369,0.0
231.47599799999998,-0.5236999999999999,16.275999,4369,0.0
231.47599799999998,-0.1485,20.923099999999998,7710,0.0
231.4767,-0.4241,20.697799999999997,10023,0.0
231.4767,-0.4118,24.412900999999998,3341,0.0
231.47689799999998,0.2934,4.7019,4112,0.0
231.47770699999998,-0.5887,4.0733999999999995,4626,0.0
231.47779799999998,-1.4528999999999999,24.254101,5911,0.0
231.477997,-0.0039,21.411699,2570,0.0
231.478104,-0.3449,4.5569,514,0.0
231.478195,-0.6447999999999999,4.225499999999999,3084,0.0
231.47830199999999,-0.2688,21.275800999999998,4112,0.0
231.47860699999998,-0.1876,21.218598999999998,3341,0.0
231.478897,-1.5509,20.0781,3855,0.0
231.479202,-0.7854,20.7533,0,0.0
231.47959899999998,-1.3963999999999999,20.415501,2570,0.0
231.479706,-0.7455999999999999,20.839700999999998,0,0.0
231.479996,-1.3006,22.5811,4883,0.0
231.480301,-0.2908,20.844601,2570,0.0
231.480698,0.4566,4.3485,1285,0.0
231.480896,0.1444,4.745,1285,0.0
231.481003,0.0943,4.4261,3341,0.0
231.481003,0.1987,21.297000999999998,12850,0.0
231.48139999999998,0.0377,21.320601,0,0.0
231.482193,-0.5538,4.2646,2313,0.0
231.482193,-0.1535,4.4836,1028,0.0
231.482193,-0.0562,4.4721,15934,0.0
231.48229999999998,0.2737,21.3055,0,0.0
231.482407,-0.3997,21.2458,2827,0.0
231.482498,-0.9489,4.1339,7710,0.0
231.482498,-0.9408,20.6451,1028,0.0
231.482498,0.5421,21.341801,0,0.0
231.483307,-0.9357,20.7309,1028,0.0
231.483398,0.2612,19.620001,1799,0.0
231.48350499999998,0.2099,19.080099,0,0.0
231.483597,-1.0211999999999999,20.582000999999998,1799,0.0
231.483597,0.23199999999999998,21.5175,4369,0.0
231.483795,0.1401,4.6399,1028,0.0
231.483902,-1.1608,20.503,5397,0.0
231.484299,0.0043,4.5301,3084,0.0
231.484695,0.0521,21.4254,0,0.0
231.484894,0.30519999999999997,19.6385,1285,0.0
231.48500099999998,-0.24869999999999998,4.3582,4883,0.0
231.485199,-1.2425,20.406401,0,0.0
231.485703,-0.2883,20.6957,0,0.0
231.48590099999998,-0.5649,4.2057,8995,0.0
231.486099,-1.5031999999999999,20.1577,5654,0.0
231.486099,-0.47409999999999997,16.224999999999998,2056,0.0
231.48629799999998,0.3388,21.313601,4626,0.0
231.486603,0.0159,21.5432,6682,0.0
231.4879,-1.4047999999999998,20.123099999999997,0,0.0
231.48899799999998,-1.3915,20.319499999999998,4112,0.0
231.48899799999998,-1.0975,20.5583,5911,0.0
231.489502,-0.3861,4.2268,1028,0.0
231.48959399999998,-1.6452,20.057399999999998,1799,0.0
231.48959399999998,0.1495,4.4355,6168,0.0
231.48980699999998,-0.89,4.060099999999999,5397,0.0
231.48989899999998,-1.1413,22.6315,4112,0.0
231.490097,-1.571,20.129299,4626,0.0
231.49049399999998,-0.7789999999999999,20.7132,3598,0.0
231.49079899999998,-0.7052999999999999,20.768998999999997,3855,0.0
231.49079899999998,-0.33799999999999997,20.656299999999998,4369,0.0
231.490906,-1.6903,24.2607,5654,0.0
231.49110399999998,-1.7244,19.991899,3855,0.0
231.491302,0.2471,19.078198999999998,0,0.0
231.491592,0.1679,4.486,3341,0.0
231.49200399999998,-1.1014,4.0657,2570,0.0
231.492096,-1.6434,20.0,0,0.0
231.492096,-1.0980999999999999,20.6133,0,0.0
231.492096,-0.0056,21.321500999999998,1799,0.0
231.492203,-0.9415,4.0396,4883,0.0
231.492493,-0.0023,4.6354999999999995,1285,0.0
231.49259899999998,-0.5618,20.5672,6682,0.0
231.49259899999998,-0.5169,20.6141,4626,0.0
231.49259899999998,0.0107,4.6943,6939,0.0
231.492706,-0.8739,4.1178,10794,0.0
231.492706,-0.8663,20.5058,2313,0.0
231.492706,-0.57,4.3435,3341,0.0
231.49299599999998,-1.6259,19.842699,2827,0.0
231.49299599999998,-1.2548,20.437099,2570,0.0
231.493195,-1.2513999999999998,17.131999999999998,2313,0.0
231.493301,0.0828,4.5674,1799,0.0
231.493301,0.4038,21.273198999999998,3598,0.0
231.494293,-0.1997,4.4313,2313,0.0
231.494904,0.23249999999999998,4.5004,6168,0.0
231.495193,0.21509999999999999,19.118299,1542,0.0
231.49600199999998,0.5115999999999999,21.335898999999998,0,0.0
231.49620099999999,0.6009,21.371799,3855,0.0
231.49659699999998,-1.3351,17.144099999999998,4112,0.0
231.496704,0.24009999999999998,19.0501,7967,0.0
231.497101,0.003,4.4312,3341,0.0
231.49740599999998,0.2912,21.273799999999998,2570,0.0
231.497696,-0.3575,20.952199999999998,6425,0.0
231.49830599999999,-1.162,20.5809,5911,0.0
231.498505,-0.0665,4.4403,4883,0.0
231.49870299999998,-1.2591999999999999,20.366301,4883,0.0
231.49870299999998,-0.33599999999999997,20.690001,0,0.0
231.499802,-0.4798,24.5982,1799,0.0
231.499802,0.16469999999999999,4.5782,514,0.0
231.5,-1.3134,20.7568,2827,0.0
231.50010699999999,-0.17559999999999998,20.7103,3341,0.0
231.50019799999998,-1.2661,17.169999999999998,4883,0.0
231.500305,-0.1364,4.4363,771,0.0
231.500397,-0.506,20.9608,3341,0.0
231.501007,-1.0998999999999999,4.1272,257,0.0
231.501297,-0.528,4.2039,2827,0.0
231.50140399999998,-1.4716,20.099701,0,0.0
231.50149499999998,-0.2186,4.4984,5140,0.0
231.501602,-0.1977,21.1604,3341,0.0
231.501694,0.0684,4.6143,4626,0.0
231.501801,-0.9301999999999999,18.8594,1028,0.0
231.501907,0.6008,21.336201,6168,0.0
231.50199899999998,0.2732,19.7003,771,0.0
231.502106,-1.2818,20.3015,5140,0.0
231.502106,-0.6416999999999999,4.2702,771,0.0
231.50239599999998,-1.7489,24.312400999999998,2827,0.0
231.50239599999998,-1.5831,20.0394,0,0.0
231.502594,0.5304,21.3402,4369,0.0
231.502808,-1.0911,20.4158,3598,0.0
231.502808,-0.3801,20.750401,3341,0.0
231.50320399999998,-1.3369,20.328599999999998,2313,0.0
231.503693,-0.9732,20.5655,4626,0.0
231.503799,-1.1333,20.5485,0,0.0
231.50450099999998,-0.46409999999999996,16.2621,0,0.0
231.504898,-0.6323,20.590401,7710,0.0
231.50500499999998,-0.0322,20.581899999999997,3341,0.0
231.50500499999998,-0.0024,4.3854999999999995,4112,0.0
231.505203,-0.7933,4.117999999999999,2313,0.0
231.505402,-0.8877999999999999,20.677999,2056,0.0
231.506607,-0.0232,21.434601,3084,0.0
231.506699,-0.2903,4.5095,5397,0.0
231.507004,0.5154,21.3617,1542,0.0
231.507294,-0.8765,20.7654,5911,0.0
231.507294,-0.6506,20.5446,7967,0.0
231.507401,-1.3717,20.128598999999998,3598,0.0
231.507401,-1.173,20.619699,0,0.0
231.50869799999998,-0.0722,21.390698999999998,8995,0.0
231.50900299999998,-0.1384,4.5802,3084,0.0
231.50909399999998,-9.999999999999999e-05,4.5733999999999995,1285,0.0
231.509506,-1.3167,20.096901,2827,0.0
231.509506,0.2557,4.7433,5654,0.0
231.5103,-0.5853999999999999,20.755699,4112,0.0
231.510605,-1.4506999999999999,20.3036,2056,0.0
231.510696,-1.2213,20.634701,771,0.0
231.51080299999998,-1.6253,19.864798999999998,0,0.0
231.511002,-1.494,20.1266,0,0.0
231.5112,-0.3818,21.0611,9509,0.0
231.511307,-1.5373999999999999,20.0501,0,0.0
231.511597,-1.4083999999999999,19.927099,4626,0.0
231.511597,-0.8695999999999999,20.799298999999998,2056,0.0
231.511902,-0.2678,4.4272,3341,0.0
231.513107,-1.6419,24.3694,2827,0.0
231.513107,-0.9982,20.5474,5911,0.0
231.513199,-0.423,20.919200999999997,6425,0.0
231.513306,-0.3649,24.496499999999997,3855,0.0
231.51350399999998,-0.7391,24.2416,3341,0.0
231.51350399999998,-0.29719999999999996,20.658701,22873,0.0
231.513794,0.2804,4.491499999999999,6168,0.0
231.51390099999998,-1.1329,4.0525,4626,0.0
231.514008,-0.5301,20.7502,0,0.0
231.514008,0.5105,21.333599,0,0.0
231.514099,-0.12329999999999999,4.6366,1799,0.0
231.514694,-0.14709999999999998,21.284,2313,0.0
231.514999,0.127,19.575399,3341,0.0
231.515198,-0.4955,20.8298,1028,0.0
231.51530499999998,-0.3523,4.6209,1542,0.0
231.51539599999998,-1.2255,23.569201,3084,0.0
231.515503,-1.1334,20.4806,0,0.0
231.515503,-1.1266,18.727698999999998,1799,0.0
231.515503,-0.1608,21.447201,3855,0.0
231.51600599999998,0.0364,21.3048,0,0.0
231.516907,-0.9492999999999999,18.8554,0,0.0
231.51719699999998,-1.0555999999999999,20.573798999999998,0,0.0
231.517303,-1.0349,20.809099,4626,0.0
231.51750199999998,-0.03,21.2384,2570,0.0
231.51780699999998,0.2347,18.996799,2313,0.0
231.51809699999998,-0.9974999999999999,18.7915,2313,0.0
231.518204,-0.8382999999999999,20.601801,0,0.0
231.518204,0.1205,4.4958,771,0.0
231.51870699999998,-1.333,20.317301,0,0.0
231.51899699999998,-1.1315,20.532301,0,0.0
231.519104,0.2382,21.323999,1799,0.0
231.520096,0.308,21.270599,0,0.0
231.52059899999998,-0.2218,4.3797999999999995,1285,0.0
231.520905,-0.5499999999999999,20.589899,0,0.0
231.52119399999998,-0.8835999999999999,18.883399999999998,1028,0.0
231.521698,0.6132,21.319900999999998,0,0.0
231.521805,-0.7303,4.0745,1799,0.0
231.52200299999998,0.5116999999999999,21.325001,0,0.0
231.522293,-1.0271,18.7057,1285,0.0
231.522293,-0.0332,21.2253,0,0.0
231.52239999999998,0.1158,4.3724,2570,0.0
231.522598,-0.9654999999999999,20.651799999999998,0,0.0
231.522705,-1.5241,20.125,0,0.0
231.52290299999999,-1.5749,20.1084,0,0.0
231.52290299999999,-0.6193,20.735001,2056,0.0
231.523605,-1.4121,20.3361,2313,0.0
231.523605,-0.748,20.711,0,0.0
231.52470399999999,-0.6999,4.2387999999999995,771,0.0
231.524994,0.1394,21.4102,9509,0.0
231.525208,-0.42779999999999996,4.217099999999999,2056,0.0
231.52540599999998,0.20909999999999998,19.600901,0,0.0
231.525894,0.3871,21.349199,0,0.0
231.525894,0.6107,21.336499999999997,0,0.0
231.52600099999998,0.0988,21.353901,2827,0.0
231.526093,0.38029999999999997,21.331799999999998,3598,0.0
231.52630599999998,-0.9241999999999999,20.5219,5397,0.0
231.528,-0.3776,20.712298999999998,0,0.0
231.528503,-0.2181,21.086399,0,0.0
231.52870199999998,-1.6008,20.061899,4369,0.0
231.529205,-0.3992,16.256999999999998,1799,0.0
231.52960199999998,0.08539999999999999,21.389999,6425,0.0
231.53059399999998,-0.847,18.867701,0,0.0
231.53089899999998,-1.1236,18.6217,1799,0.0
231.531006,-0.4191,20.7537,3598,0.0
231.531296,-1.2455,17.137999999999998,2056,0.0
231.53140299999998,0.24389999999999998,4.7025,6939,0.0
231.53149399999998,-0.2501,20.7379,0,0.0
231.53149399999998,-0.0804,21.4212,0,0.0
231.531601,0.1437,4.3793999999999995,2570,0.0
231.531693,0.4234,21.4056,4112,0.0
231.531998,-0.4314,20.8519,0,0.0
231.53230299999998,-0.9927999999999999,18.7973,0,0.0
231.53230299999998,-0.5569,4.208,771,0.0
231.532593,-0.8138,20.801099999999998,3598,0.0
231.53269999999998,-1.6779,19.948798999999998,6425,0.0
231.533005,0.0566,21.5172,0,0.0
231.533707,-1.6536,24.211399,9509,0.0
231.533798,-1.6340999999999999,19.908898999999998,2827,0.0
231.53390499999998,-1.0259,20.583799,2827,0.0
231.534393,-0.7996,24.389499999999998,3855,0.0
231.534393,-0.1518,4.4616999999999996,771,0.0
231.53449999999998,0.042699999999999995,4.6194,3341,0.0
231.53449999999998,0.058699999999999995,21.528799,9766,0.0
231.534607,0.4683,21.454399,2570,0.0
231.535507,-1.3123,20.3417,0,0.0
231.536499,0.1124,21.326999999999998,5140,0.0
231.53669699999998,-0.5856,4.2484,5140,0.0
231.537003,0.2845,21.341299,0,0.0
231.53750599999998,-1.5554,20.065599,0,0.0
231.537796,-1.6202999999999999,20.070100999999998,0,0.0
231.537903,0.0586,21.497999,1799,0.0
231.537903,0.4865,21.3137,0,0.0
231.537994,-0.32339999999999997,20.682199,8481,0.0
231.53840599999998,-1.1344999999999998,4.0534,1285,0.0
231.53849799999998,-1.6093,24.415198999999998,4112,0.0
231.53849799999998,-0.9275,20.7423,2827,0.0
231.538605,0.1572,21.4851,4369,0.0
231.539795,-1.0289,18.7988,1028,0.0
231.53999299999998,-0.6563,20.782301,2827,0.0
231.540695,-0.0681,4.5764,2570,0.0
231.541306,-0.2522,20.770901,3341,0.0
231.54200699999998,-0.4689,21.1528,2827,0.0
231.54200699999998,0.29919999999999997,21.341801,0,0.0
231.543503,-0.0861,21.395398999999998,0,0.0
231.543503,0.4708,21.348399999999998,6425,0.0
231.54359399999998,-1.3577,20.3832,2570,0.0
231.543793,-0.0186,25.2687,0,0.0
231.543793,0.15009999999999998,21.3808,0,0.0
231.544296,0.13799999999999998,21.407301,0,0.0
231.544296,0.1664,4.5843,2056,0.0
231.544998,-1.6403999999999999,20.058398999999998,0,0.0
231.545593,0.418,21.344801,3084,0.0
231.545807,-1.3164,20.3864,2570,0.0
231.54659999999998,-0.4276,21.006701,5654,0.0
231.546799,-1.3045,17.197701,3598,0.0
231.54699699999998,-0.1855,21.031499999999998,10023,0.0
231.547104,-1.4037,19.7467,2313,0.0
231.547104,-0.4765,20.7915,8738,0.0
231.547104,0.5104,21.346000999999998,0,0.0
231.547302,-1.3781999999999999,23.864798999999998,1542,0.0
231.54750099999998,-1.0977999999999999,4.1079,514,0.0
231.547699,-0.6336999999999999,4.2791,257,0.0
231.547699,-0.2145,4.3652999999999995,1542,0.0
231.548203,0.5304,21.2332,7453,0.0
231.54849199999998,-0.8928999999999999,20.6912,0,0.0
231.549103,-1.3369,20.445999,3084,0.0
231.549194,-0.179,4.3117,3084,0.0
231.5495,0.28309999999999996,4.497599999999999,4112,0.0
231.549896,-0.3586,4.4239,3855,0.0
231.550095,0.0144,4.3311,1028,0.0
231.550201,-1.4958,19.990299,0,0.0
231.55059799999998,-0.1388,21.2334,3341,0.0
231.550705,-1.7119,19.880198999999998,2313,0.0
231.550995,-1.6255,24.134399,9252,0.0
231.5513,-0.1735,21.450398999999997,3084,0.0
231.55149799999998,-1.2117,20.431299,2570,0.0
231.551697,-0.4314,21.1175,3084,0.0
231.55180399999998,-1.2975999999999999,23.778399999999998,3084,0.0
231.551895,-1.3423,20.416200999999997,0,0.0
231.5522,0.3412,21.318099999999998,0,0.0
231.55270399999998,-0.9871,20.595301,0,0.0
231.552795,-1.4488999999999999,19.822201,2313,0.0
231.552795,-0.015399999999999999,21.506901,5397,0.0
231.552902,-1.7266,24.317498999999998,2827,0.0
231.55299399999998,-0.8697999999999999,4.0689,5140,0.0
231.553101,-0.6292,4.2282,1542,0.0
231.553497,-0.3351,21.1604,2827,0.0
231.554596,-1.5065,19.8689,7967,0.0
231.55549599999998,-0.2807,21.201,8224,0.0
231.555603,-0.37029999999999996,4.3125,5397,0.0
231.555695,-0.4677,20.584498999999997,4626,0.0
231.555695,0.1989,19.067100999999997,1285,0.0
231.556198,-0.19219999999999998,4.4757,771,0.0
231.556198,0.19749999999999998,21.375799,0,0.0
231.55630499999998,-1.7363,20.017599,0,0.0
231.556503,0.024499999999999997,4.5508999999999995,1028,0.0
231.556503,0.0872,4.4249,1028,0.0
231.556793,-0.40549999999999997,20.874299999999998,2827,0.0
231.55689999999998,-0.9724999999999999,20.518499,10280,0.0
231.55689999999998,-0.298,20.709801,0,0.0
231.557098,-1.0367,18.74,2570,0.0
231.55729699999998,-1.5134999999999998,19.9865,0,0.0
231.55729699999998,-0.9423999999999999,4.061599999999999,7967,0.0
231.557602,-1.0935,20.5998,3855,0.0
231.557999,-1.0363,20.5149,3598,0.0
231.55819699999998,-1.2104,17.174298999999998,0,0.0
231.558304,-0.8013,24.3113,6682,0.0
231.558395,-0.4744,4.2602,257,0.0
231.559799,-0.3228,20.944098999999998,2570,0.0
231.560196,-1.4319,19.988799999999998,4369,0.0
231.560196,-0.9422999999999999,4.0999,4883,0.0
231.560394,0.20879999999999999,21.2827,2570,0.0
231.56059299999998,-1.5676999999999999,20.147699,2827,0.0
231.560699,-1.6306999999999998,24.285899999999998,6682,0.0
231.560699,-0.8452,20.699699,3855,0.0
231.560699,-0.11829999999999999,4.4276,2570,0.0
231.561401,0.22999999999999998,19.541999999999998,3855,0.0
231.5616,-1.7437,20.008801,7196,0.0
231.5616,-0.2918,20.742001,3598,0.0
231.5616,-0.2435,24.701598999999998,4369,0.0
231.562393,0.1517,4.4334,3341,0.0
231.562897,-1.8114,24.302601,2827,0.0
231.56309499999998,-0.42779999999999996,4.2025999999999994,3084,0.0
231.56390399999998,-0.5022,4.2154,257,0.0
231.56399499999998,-0.3734,24.5112,4626,0.0
231.564102,-0.5929,21.142899999999997,4369,0.0
231.564606,0.6173,21.317801,7196,0.0
231.564697,-0.2127,21.295299999999997,3341,0.0
231.56489599999998,-0.31379999999999997,4.2664,2056,0.0
231.565094,-1.7368999999999999,19.878901,5397,0.0
231.56539899999999,-0.9668,3.9657999999999998,1285,0.0
231.56539899999999,-0.8784,4.1350999999999996,2570,0.0
231.56539899999999,0.23729999999999998,4.501399999999999,8738,0.0
231.565598,-0.3616,4.285,3084,0.0
231.566193,-1.5414999999999999,19.9939,2313,0.0
231.566193,-1.1519,4.1101,514,0.0
231.566406,-1.4761,19.751499,3598,0.0
231.566803,-1.5900999999999998,20.0464,2570,0.0
231.567093,-1.6042999999999998,20.023999999999997,4883,0.0
231.567902,-1.111,4.0515,257,0.0
231.5681,-0.2946,21.0476,4112,0.0
231.568298,-0.2264,21.16,3341,0.0
231.56840499999998,-0.4008,20.836399,2827,0.0
231.56840499999998,0.2271,19.525999,0,0.0
231.568695,-0.0648,4.4171,4626,0.0
231.56880199999998,-1.1415,22.6089,3855,0.0
231.56880199999998,0.0163,4.4838,4369,0.0
231.569199,-1.0165,4.0691999999999995,2827,0.0
231.56930499999999,0.0197,4.4279,5654,0.0
231.569901,0.014199999999999999,21.421899999999997,1799,0.0
231.570404,-0.2467,21.299899999999997,4112,0.0
231.570496,-1.2137,20.3556,2570,0.0
231.570908,0.3918,21.363198999999998,2056,0.0
231.570999,-1.6692,20.1164,5397,0.0
231.571396,-0.7672,4.0304,3598,0.0
231.57209799999998,-0.0402,4.4876,4626,0.0
231.572296,-0.2828,4.418699999999999,7453,0.0
231.572906,0.30329999999999996,21.286699,0,0.0
231.57299799999998,-1.6829999999999998,20.109199999999998,0,0.0
231.57339499999998,-1.1120999999999999,20.4713,8224,0.0
231.57389799999999,-0.7910999999999999,20.752001,4112,0.0
231.57429499999998,-1.5273999999999999,24.615999,3598,0.0
231.575607,-0.5382,20.7787,9509,0.0
231.575699,-0.1127,4.3732999999999995,3084,0.0
231.575897,-0.2422,20.747801,0,0.0
231.576508,-0.31689999999999996,20.952800999999997,0,0.0
231.57699599999998,-0.2873,4.3334,4626,0.0
231.57730099999998,-0.39189999999999997,21.206599999999998,3341,0.0
231.577393,-1.0782,20.5137,3598,0.0
231.577393,-0.5201,16.276501,3855,0.0
231.577499,-0.956,18.875401,3341,0.0
231.577606,-1.5163,19.9821,0,0.0
231.577606,-1.4465999999999999,19.818001,0,0.0
231.57780499999998,0.1601,21.3675,5140,0.0
231.578094,-1.044,4.1089,1799,0.0
231.57820099999998,-0.8442999999999999,20.627299999999998,3598,0.0
231.5784,-0.7077,4.1425,1542,0.0
231.57870499999999,-1.696,20.027901,0,0.0
231.578995,-0.7978999999999999,4.1201,4883,0.0
231.57910199999998,-0.9846999999999999,4.2512,4626,0.0
231.57969699999998,-0.10919999999999999,21.1346,8481,0.0
231.58009299999998,0.1731,4.4811,514,0.0
231.5802,-1.1602,18.713499,3084,0.0
231.580505,0.1147,4.4786,3084,0.0
231.58059699999998,-0.07719999999999999,4.3597,2827,0.0
231.580704,-1.6734,20.012898999999997,1028,0.0
231.58099399999998,-1.4426999999999999,20.224899,2313,0.0
231.5811,-0.20729999999999998,4.4264,5654,0.0
231.5811,0.30119999999999997,21.314698999999997,3084,0.0
231.581299,-1.7882,20.0044,0,0.0
231.58149699999998,0.5416,21.2883,0,0.0
231.58189399999998,0.1891,19.5886,0,0.0
231.582199,-0.1261,4.553599999999999,3084,0.0
231.582901,-0.7378,4.0694,4626,0.0
231.582901,-0.0662,21.384399,3855,0.0
231.58459499999998,0.5670999999999999,21.343,0,0.0
231.584793,-1.4186999999999999,20.159900999999998,2313,0.0
231.585098,-1.4762,20.211499999999997,0,0.0
231.585098,-0.4331,4.266,514,0.0
231.585602,0.3276,21.426700999999998,3084,0.0
231.585602,0.5518,21.332701,9766,0.0
231.58579999999998,-1.712,20.0002,0,0.0
231.586197,-1.3101,20.2178,10023,0.0
231.58669999999998,-1.2197,17.203198999999998,1542,0.0
231.586807,-1.7804,19.9946,0,0.0
231.586807,0.1659,19.579598999999998,1799,0.0
231.587494,-0.7002999999999999,20.7924,2570,0.0
231.587799,-0.5072,20.759199,2827,0.0
231.587799,0.23379999999999998,4.3835,2570,0.0
231.587799,0.2781,21.2444,2827,0.0
231.588104,-1.6248,24.391199,0,0.0
231.588104,-1.4326999999999999,20.089299999999998,1285,0.0
231.588699,0.2012,18.9499,6425,0.0
231.58909599999998,-0.325,20.7535,10794,0.0
231.589203,0.1762,19.416,2570,0.0
231.5896,-0.2045,4.5957,1799,0.0
231.590103,-1.3961999999999999,24.3323,4112,0.0
231.590103,-0.46559999999999996,16.251699,12336,0.0
231.59060699999998,-0.0118,21.277200999999998,10280,0.0
231.590805,-0.948,20.5473,0,0.0
231.59089699999998,-1.028,18.7208,0,0.0
231.59120199999998,0.26849999999999996,19.573798999999998,0,0.0
231.591599,-0.48829999999999996,24.338699,2056,0.0
231.591599,-0.2024,20.7612,3341,0.0
231.59219399999998,-1.4218,20.791901,2827,0.0
231.59330699999998,-1.4764,20.0396,0,0.0
231.593506,-1.5512,20.082399,8995,0.0
231.594101,0.6204999999999999,21.9653,6425,0.0
231.59480299999998,-1.7963,20.0196,0,0.0
231.59480299999998,-1.6106,24.2871,0,0.0
231.595505,-1.2317,23.610599999999998,3084,0.0
231.595901,-0.7910999999999999,24.803300999999998,3598,0.0
231.59669499999998,-1.6009,20.110799999999998,0,0.0
231.59669499999998,-0.761,4.164499999999999,1542,0.0
231.597198,-1.4281,19.7897,0,0.0
231.597504,0.2854,21.306499,0,0.0
231.597702,-1.5372,24.694499999999998,3341,0.0
231.597794,-1.5468,24.0448,10537,0.0
231.597794,-0.5591999999999999,16.3325,6168,0.0
231.598007,-0.9678,20.65,4369,0.0
231.598007,-0.8181999999999999,18.857201,4626,0.0
231.598099,0.44649999999999995,21.339700999999998,0,0.0
231.599503,0.414,21.8568,4112,0.0
231.59979199999998,0.1161,18.999399,2313,0.0
231.60000599999998,-0.8451,18.873199,4112,0.0
231.600296,0.4905,21.2957,0,0.0
231.601196,-0.263,4.4664,514,0.0
231.6017,0.2271,19.526199,0,0.0
231.60240199999998,-1.2711999999999999,20.394500999999998,0,0.0
231.60249299999998,0.6309,21.559400999999998,3341,0.0
231.603195,-1.6149,20.124201,7196,0.0
231.603195,-1.6094,24.2593,0,0.0
231.60330199999999,0.0264,25.200499999999998,5397,0.0
231.60360699999998,-1.7489999999999999,20.006701,0,0.0
231.60360699999998,-1.6502999999999999,24.218799999999998,0,0.0
231.604202,-0.038099999999999995,4.515,3084,0.0
231.604401,-0.4029,20.7591,8738,0.0
231.60490399999998,-1.4182,20.1073,0,0.0
231.60549899999998,-1.0848,20.506999999999998,0,0.0
231.60609399999998,-1.0153999999999999,20.583099,1285,0.0
231.60609399999998,-0.3067,24.5249,2056,0.0
231.60639999999998,-0.4493,20.827299,1542,0.0
231.606506,0.20129999999999998,21.3451,0,0.0
231.60670499999998,-0.6773,4.0796,1799,0.0
231.607407,0.1727,4.6128,771,0.0
231.607697,-0.2171,4.6186,1799,0.0
231.608002,-0.963,18.754801,2570,0.0
231.608307,0.10779999999999999,21.3671,10023,0.0
231.608597,-1.7954999999999999,19.9023,0,0.0
231.608902,-1.3152,20.832399,3598,0.0
231.60940599999998,0.2744,21.3706,2570,0.0
231.609802,-0.9375,3.9871999999999996,2313,0.0
231.61000099999998,-1.3779,20.169999999999998,3855,0.0
231.610107,0.2372,4.5039,2570,0.0
231.610199,-1.5012999999999999,20.114401,8995,0.0
231.610199,-1.2381,24.182501,4369,0.0
231.610199,-0.2225,21.334801,0,0.0
231.611099,-0.1727,21.2148,0,0.0
231.61120599999998,0.3357,21.325899,5140,0.0
231.611603,-1.3659,24.1479,3341,0.0
231.61219799999998,-1.6282999999999999,20.0716,3598,0.0
231.612305,0.0168,25.1394,9509,0.0
231.612396,-0.7376999999999999,4.071899999999999,2570,0.0
231.61250299999998,-0.3,20.6597,0,0.0
231.61250299999998,0.183,19.066601,0,0.0
231.61300699999998,-0.206,24.430799,1542,0.0
231.613495,0.1987,19.6189,0,0.0
231.61390699999998,0.1567,19.615299,6168,0.0
231.614105,-0.9505,4.253299999999999,2056,0.0
231.615097,-0.5991,20.791598999999998,0,0.0
231.615097,0.1147,4.6366,2313,0.0
231.61520399999998,-1.752,20.012898999999997,5140,0.0
231.61520399999998,-1.7341,20.113799999999998,0,0.0
231.61579899999998,-1.4356,19.999201,3855,0.0
231.61639399999999,0.6906,20.549,0,0.0
231.616898,-0.0382,21.1754,6682,0.0
231.617294,-1.4888,19.8382,1799,0.0
231.617294,0.6056,21.384000999999998,3084,0.0
231.618195,-1.2505,23.560800999999998,3341,0.0
231.618393,0.1731,21.3396,0,0.0
231.618607,-0.2728,21.107599,8481,0.0
231.61889599999998,-1.0458,20.5158,0,0.0
231.619095,-0.9057,4.2036,5140,0.0
231.61939999999998,0.06709999999999999,4.4998,771,0.0
231.619904,-1.6694,20.0644,7453,0.0
231.619904,0.0047,21.461499999999997,5654,0.0
231.620193,-0.0997,21.267599,8224,0.0
231.620499,-0.8189,18.805,0,0.0
231.621796,-0.1992,4.4662999999999995,1285,0.0
231.622101,0.7121,20.5858,4883,0.0
231.62240599999998,-1.1354,4.0573,771,0.0
231.62240599999998,0.175,21.266099999999998,771,0.0
231.62280299999998,-0.3448,4.420599999999999,4626,0.0
231.62330599999999,0.25129999999999997,19.487101,4112,0.0
231.62399299999998,-0.48019999999999996,4.2405,1542,0.0
231.624405,0.1373,19.487399999999997,0,0.0
231.62460299999998,-0.044,4.5599,1285,0.0
231.624893,0.17809999999999998,4.4395,6168,0.0
231.62510699999999,-0.2596,21.251801,0,0.0
231.62519799999998,0.3137,21.3967,5397,0.0
231.625397,-1.0027,4.2136,4626,0.0
231.625397,0.0761,4.3857,2570,0.0
231.625793,-0.2837,4.2970999999999995,5397,0.0
231.626007,-0.40909999999999996,21.167199999999998,4112,0.0
231.62640399999998,-1.4353,19.7974,0,0.0
231.626602,-1.2403,20.1513,5654,0.0
231.626602,-0.8576999999999999,4.0553,6425,0.0
231.62730399999998,0.5901,21.370199,0,0.0
231.62739599999998,-0.5154,16.266099999999998,5397,0.0
231.62739599999998,-0.4279,4.224,771,0.0
231.627594,-0.5146,16.269500999999998,0,0.0
231.627808,-1.0332999999999999,20.511699999999998,0,0.0
231.62789899999999,-0.4052,4.252,514,0.0
231.628601,-0.9632,20.498699,7710,0.0
231.628906,-0.8075,24.223,7453,0.0
231.628998,0.128,18.967899,6425,0.0
231.62919599999998,-0.11979999999999999,4.4704999999999995,1028,0.0
231.629303,-0.13649999999999998,4.4045,2827,0.0
231.629395,-1.4324999999999999,20.167199999999998,9509,0.0
231.629807,-0.06949999999999999,4.3496999999999995,2827,0.0
231.63099699999998,0.3059,21.366699,0,0.0
231.631195,-0.18739999999999998,4.5648,1799,0.0
231.631393,-0.9033,20.5093,7967,0.0
231.631393,0.5095,21.376300999999998,3084,0.0
231.632095,-0.6559999999999999,4.1124,1799,0.0
231.632599,-0.5600999999999999,21.102899999999998,3598,0.0
231.63369799999998,-0.1903,4.4079999999999995,1285,0.0
231.63400299999998,-0.7213999999999999,4.1113,4112,0.0
231.634796,-1.0654,4.1011,1028,0.0
231.635101,-0.258,4.3624,3084,0.0
231.6362,-1.3974,20.7658,5397,0.0
231.636597,-0.8717999999999999,20.554001,2570,0.0
231.63679499999998,-1.0874,4.061999999999999,3855,0.0
231.63679499999998,0.023299999999999998,21.3766,8224,0.0
231.63679499999998,0.24309999999999998,19.620501,3341,0.0
231.63709999999998,0.0282,4.4341,4883,0.0
231.637207,0.023299999999999998,4.4913,1799,0.0
231.637405,0.024,18.882299,2827,0.0
231.63760399999998,0.0281,21.4191,0,0.0
231.63769499999998,-1.0212999999999999,20.503099,6168,0.0
231.63769499999998,0.1566,4.477399999999999,3855,0.0
231.638397,-0.39289999999999997,24.5902,2056,0.0
231.63890099999998,0.1707,21.3204,1799,0.0
231.639008,-0.4916,4.3503,514,0.0
231.639297,-1.4147999999999998,19.783099999999997,4883,0.0
231.639297,-0.381,4.2063,1285,0.0
231.63949599999998,-1.3144,17.2244,0,0.0
231.639694,-1.4893999999999998,20.054501,3341,0.0
231.639893,-0.29369999999999996,21.079901,0,0.0
231.64039599999998,-0.9533999999999999,4.2113,6682,0.0
231.64039599999998,0.24559999999999998,21.298201,2570,0.0
231.640793,0.6511,21.392401,1799,0.0
231.6409,-0.5996,20.820299,5911,0.0
231.641098,0.4346,21.368401,1542,0.0
231.641495,-0.7874,4.1255999999999995,3598,0.0
231.641495,-0.1472,21.3979,2570,0.0
231.641693,-0.3364,21.1721,3855,0.0
231.642303,-0.8968999999999999,20.554700999999998,0,0.0
231.642303,0.16599999999999998,19.0243,3341,0.0
231.642303,0.6194,21.435699,4626,0.0
231.64259299999998,-0.18889999999999998,21.233100999999998,2827,0.0
231.6427,-1.2983,17.2026,2056,0.0
231.643005,0.1411,4.539,2570,0.0
231.643906,-1.7931,20.090598999999997,3084,0.0
231.644699,-1.0177,4.0668,7196,0.0
231.645401,-0.34359999999999996,24.471999999999998,2827,0.0
231.645706,-0.3462,4.2974,6168,0.0
231.645706,-0.2264,21.275101,0,0.0
231.64619399999998,-0.9598,4.0493999999999994,4369,0.0
231.64700299999998,-0.6884,22.7836,3341,0.0
231.647293,-0.35919999999999996,20.929501,3341,0.0
231.647598,-1.5347,24.522301,6939,0.0
231.64790299999999,-1.5051999999999999,24.128401,5911,0.0
231.648102,-0.19619999999999999,4.367,3855,0.0
231.648407,-0.8309,18.854499999999998,3341,0.0
231.648605,-1.4197,20.3081,1799,0.0
231.649002,-1.3066,20.418699,6168,0.0
231.649002,-0.9105,4.1047,3084,0.0
231.649902,-0.37589999999999996,21.146601,0,0.0
231.650299,-1.7858999999999998,19.919399,11051,0.0
231.650299,-1.0916,20.426099999999998,8738,0.0
231.650299,-0.25789999999999996,20.669701,8224,0.0
231.650604,-1.2686,17.2111,4369,0.0
231.650604,0.15889999999999999,19.456799999999998,1285,0.0
231.65159599999998,-0.9567,20.577999,2570,0.0
231.65159599999998,0.6742,22.000799,2056,0.0
231.65199299999998,-0.5078,16.282899999999998,6682,0.0
231.65220599999998,-1.8057999999999998,20.009899,6939,0.0
231.65249599999999,-0.4437,16.3001,2313,0.0
231.652695,-1.317,23.615999,6682,0.0
231.65280199999998,-1.3191,20.524099,5140,0.0
231.653,-1.7239,19.976101,0,0.0
231.65310699999998,-0.1289,4.3109,771,0.0
231.653595,-0.9994999999999999,4.1411,2570,0.0
231.65379299999998,-0.34959999999999997,4.5133,4369,0.0
231.654099,0.0867,4.4402,4369,0.0
231.6548,-1.1964,20.5424,4626,0.0
231.655304,-0.2786,4.3963,2313,0.0
231.65580699999998,-0.8535999999999999,4.119,4112,0.0
231.65649399999998,-0.7900999999999999,18.8375,6425,0.0
231.65710399999998,-0.5048,21.0807,3855,0.0
231.65730299999998,-0.0566,21.317698999999998,4626,0.0
231.657501,-1.0207,4.281499999999999,514,0.0
231.657501,-0.2701,21.265499,3084,0.0
231.657806,-0.2822,4.2241,1285,0.0
231.658005,-0.1175,21.518998999999997,5397,0.0
231.658203,-1.3618,20.257400999999998,0,0.0
231.658401,-0.46399999999999997,21.1752,1799,0.0
231.65859999999998,0.2362,19.5305,9252,0.0
231.65890499999998,0.5074,21.3293,2570,0.0
231.65919499999998,-0.4986,4.1726,1285,0.0
231.65949999999998,0.1555,19.514,0,0.0
231.659897,-0.2208,21.3172,3084,0.0
231.660004,-1.5426,24.260201,5140,0.0
231.660294,-1.7147,20.180699999999998,6425,0.0
231.660507,-1.67,20.121401,2570,0.0
231.660507,0.35819999999999996,21.360001,3855,0.0
231.660797,0.2095,21.359699,0,0.0
231.661194,-1.1454,20.5714,5140,0.0
231.661194,-0.834,18.8435,0,0.0
231.661407,-0.13319999999999999,21.379600999999997,0,0.0
231.66319299999998,-1.0991,20.4958,4112,0.0
231.6633,-0.10329999999999999,19.575599999999998,1028,0.0
231.6642,-1.7448,20.1117,4626,0.0
231.664597,-0.3112,20.680901,0,0.0
231.664703,-1.4248999999999998,20.825701,1285,0.0
231.66499299999998,-0.24359999999999998,20.6665,0,0.0
231.665604,0.4259,21.435499,0,0.0
231.665695,-1.4524,20.036699,0,0.0
231.666306,0.2037,19.519399999999997,0,0.0
231.66709899999998,-0.8932,20.642401,3855,0.0
231.66769399999998,-1.1038999999999999,20.4788,0,0.0
231.668106,-1.2295,20.255399999999998,4883,0.0
231.66830399999998,-1.4445,19.761,1542,0.0
231.668793,-0.1323,4.3457,771,0.0
231.668793,0.11839999999999999,18.952801,4883,0.0
231.669098,0.6788,20.490199999999998,2570,0.0
231.669693,0.45139999999999997,21.443500999999998,10794,0.0
231.66979999999998,-0.5515,22.693099999999998,2313,0.0
231.669907,-1.5181,20.2232,2570,0.0
231.670593,0.5268999999999999,21.298201,0,0.0
231.670898,-0.8703,18.7871,2313,0.0
231.671097,-0.7873,4.0773,1799,0.0
231.671097,-0.0435,4.4341,257,0.0
231.671097,0.621,21.381201,0,0.0
231.671295,-0.9255,20.516099999999998,0,0.0
231.671295,-0.8868999999999999,3.996,771,0.0
231.671402,-0.1842,21.386999,8738,0.0
231.671494,-0.578,4.1768,257,0.0
231.67159999999998,0.14329999999999998,19.450499999999998,0,0.0
231.67199699999998,-1.4228999999999998,19.9146,3341,0.0
231.67199699999998,-0.38749999999999996,21.126499,4112,0.0
231.672699,-1.3726,19.799699999999998,0,0.0
231.67289699999998,-0.5314,20.836900999999997,1028,0.0
231.673904,-1.7753999999999999,20.095301,6425,0.0
231.67460599999998,0.1585,21.332701,0,0.0
231.6754,-0.4825,21.153999,0,0.0
231.67559799999998,-0.4909,16.263599,0,0.0
231.67590299999998,-1.2557,22.6695,2056,0.0
231.67709399999998,-0.4965,24.490600999999998,3341,0.0
231.67730699999998,-0.2985,21.140300999999997,3341,0.0
231.678101,0.6122,25.3339,2827,0.0
231.678406,-0.6901999999999999,18.839001,3084,0.0
231.679001,0.36769999999999997,21.3536,7196,0.0
231.679092,-1.5293999999999999,24.236099,3341,0.0
231.679398,-0.7966,18.790599999999998,0,0.0
231.679901,-0.9044,20.551201,0,0.0
231.68130499999998,0.13499999999999998,18.921499,0,0.0
231.681702,-0.8508,18.860398999999997,2827,0.0
231.68189999999998,-0.2877,4.194,3598,0.0
231.682098,-1.2178,20.5762,0,0.0
231.682495,-1.549,20.061398999999998,0,0.0
231.682693,-0.2137,21.3503,771,0.0
231.682907,0.1112,21.3528,0,0.0
231.683304,-1.003,18.941299,6168,0.0
231.683807,-1.8042,19.953198999999998,3084,0.0
231.68409699999998,-1.4402,20.8036,2570,0.0
231.684296,0.5416,25.3431,3341,0.0
231.68440199999998,-1.478,19.9911,0,0.0
231.68440199999998,-0.8861,18.9529,1028,0.0
231.684494,-0.22849999999999998,20.7001,5654,0.0
231.684601,-1.7861,19.967899,0,0.0
231.684799,-1.0579,20.419999999999998,0,0.0
231.685196,0.7076,21.2955,0,0.0
231.68530299999998,0.5656,21.2974,0,0.0
231.68589799999998,-1.0295999999999998,4.2059,3855,0.0
231.68589799999998,-0.1388,21.198798999999998,1285,0.0
231.68620299999998,-0.3492,20.717501,6682,0.0
231.68620299999998,-0.2561,21.281299999999998,2827,0.0
231.6866,-0.45549999999999996,16.275399999999998,3341,0.0
231.686905,-1.1076,4.0626,771,0.0
231.687805,0.015,4.4696,3598,0.0
231.68800399999998,-0.0417,21.368,0,0.0
231.688293,-1.3167,20.210898999999998,4112,0.0
231.688293,-0.5562,21.0182,2570,0.0
231.689606,0.0712,4.4265,3855,0.0
231.68980399999998,-0.5433,16.261298999999998,0,0.0
231.69070399999998,-0.5121,4.1415999999999995,1028,0.0
231.69070399999998,0.3006,21.360599999999998,0,0.0
231.692093,-1.0089,20.515698999999998,5140,0.0
231.693207,0.2253,21.4221,0,0.0
231.69340499999998,-0.2907,21.394099999999998,4112,0.0
231.695099,-1.6824,20.0427,0,0.0
231.695099,-1.3235999999999999,17.2362,1028,0.0
231.695404,-1.1594,4.0957,771,0.0
231.695496,-0.2498,21.3188,8995,0.0
231.69560199999998,-1.1514,20.504199999999997,4883,0.0
231.69560199999998,-0.1244,4.4024,5911,0.0
231.69560199999998,-0.0031999999999999997,25.097199999999997,4626,0.0
231.695999,-1.8187,19.988799999999998,6682,0.0
231.695999,-1.1509,20.466499,0,0.0
231.695999,-0.1936,20.900299,1799,0.0
231.69619799999998,0.5694,21.395599,0,0.0
231.697006,-1.7845,20.041999999999998,0,0.0
231.697006,-0.0258,21.416,4112,0.0
231.69709799999998,-1.5329,20.0714,1799,0.0
231.697693,-0.10869999999999999,21.3111,3341,0.0
231.6978,-0.2984,20.6679,19532,0.0
231.698105,0.4491,21.3892,3855,0.0
231.698196,0.6457999999999999,21.381999999999998,0,0.0
231.698502,-1.325,20.91,0,0.0
231.698502,-0.7337,4.1093,771,0.0
231.6987,-1.5841999999999998,24.328799999999998,3341,0.0
231.69889799999999,-1.5820999999999998,24.260201,1285,0.0
231.69889799999999,0.4715,21.4181,0,0.0
231.699005,-0.3031,20.7057,0,0.0
231.699493,-0.3308,21.306801,11308,0.0
231.69959999999998,-1.4231,20.0203,0,0.0
231.69959999999998,-0.2107,20.8407,6425,0.0
231.69959999999998,-0.0682,4.398899999999999,8481,0.0
231.699707,-1.4413,20.016899,5911,0.0
231.699707,-0.7802,4.1127,3084,0.0
231.69979899999998,0.6722,21.613198999999998,2056,0.0
231.699997,-0.13219999999999998,21.488198999999998,3084,0.0
231.70010399999998,-0.606,21.24,3084,0.0
231.700897,-0.10379999999999999,21.459699999999998,0,0.0
231.70109599999998,-0.8928999999999999,20.555999999999997,0,0.0
231.70109599999998,0.27799999999999997,21.325001,3855,0.0
231.701202,-0.6374,21.150999,2827,0.0
231.701508,0.061599999999999995,18.921599999999998,2313,0.0
231.701706,-0.9642,4.0012,2313,0.0
231.70199599999998,0.36869999999999997,21.3612,0,0.0
231.702194,-0.5999,21.180999999999997,0,0.0
231.70230099999998,-0.2696,20.7428,2827,0.0
231.702499,-0.0793,21.432199,0,0.0
231.70280499999998,-0.6457999999999999,4.134399999999999,514,0.0
231.70280499999998,-0.19349999999999998,21.401199,8738,0.0
231.70280499999998,0.20659999999999998,19.491799999999998,2570,0.0
231.70370499999999,-1.1764999999999999,20.3009,3598,0.0
231.703995,-0.6379,20.9238,5654,0.0
231.704498,0.6532,20.5411,0,0.0
231.70469699999998,-1.2982,20.25,0,0.0
231.704895,-1.5911,20.109699,1799,0.0
231.70500199999998,-1.1117,20.462298999999998,2827,0.0
231.70509299999998,-1.093,4.1901,514,0.0
231.70530699999998,-0.7606999999999999,24.2533,3341,0.0
231.70530699999998,-0.4541,21.1661,5654,0.0
231.706299,-0.053,21.556601,5654,0.0
231.706406,-0.0342,25.0571,4883,0.0
231.706406,0.7149,21.3092,6425,0.0
231.706604,0.14179999999999998,24.263599,4626,0.0
231.70680199999998,0.1905,19.526799999999998,1542,0.0
231.70710799999998,-1.8083,20.0242,0,0.0
231.707397,0.18889999999999998,19.5065,2056,0.0
231.707596,-1.7502,19.980801,5397,0.0
231.707596,-0.8603,21.323099,2827,0.0
231.707596,-0.8481,4.1899999999999995,2313,0.0
231.707596,-0.3099,21.112101,3598,0.0
231.70770299999998,-0.4924,21.102899999999998,3598,0.0
231.70779399999998,-0.5019,4.1898,4883,0.0
231.70779399999998,-0.35519999999999996,4.3597,1542,0.0
231.707901,0.2542,19.524099,1799,0.0
231.70829799999998,-0.5111,21.2178,8481,0.0
231.708405,-0.0556,4.3758,257,0.0
231.70860299999998,-1.009,4.0672,3084,0.0
231.70869399999998,-1.0871,20.519500999999998,2570,0.0
231.70869399999998,0.697,25.382799,9766,0.0
231.709,-1.8035999999999999,20.089899,0,0.0
231.70950299999998,-0.33799999999999997,4.410299999999999,2056,0.0
231.710007,-0.8739,4.111,5654,0.0
231.710297,-0.4574,4.1354999999999995,514,0.0
231.71040299999999,-1.3016999999999999,17.190001,3598,0.0
231.710693,-0.5600999999999999,20.8361,2827,0.0
231.711105,0.7162,21.343901,0,0.0
231.711197,-0.563,4.1268,1542,0.0
231.71139499999998,-1.3526,20.2885,3341,0.0
231.712006,-1.658,20.1369,7196,0.0
231.712097,-0.9001,20.5669,0,0.0
231.712402,-0.9507,4.0548,1542,0.0
231.71260099999998,-0.6402,4.2153,2313,0.0
231.712708,-0.0491,19.552699999999998,2570,0.0
231.712799,0.2108,21.4527,0,0.0
231.713593,-1.4423,24.2836,3598,0.0
231.713593,-0.5747,4.2044,257,0.0
231.714005,-0.7958,4.0843,2827,0.0
231.71409599999998,-1.0176,20.538401,0,0.0
231.71440099999998,-1.3625,23.6157,3341,0.0
231.715195,0.5596,21.2971,2056,0.0
231.71539299999998,-1.2116,20.381598999999998,1799,0.0
231.7155,-0.3167,4.483499999999999,514,0.0
231.71560699999998,0.3374,21.439501,1542,0.0
231.715698,-1.7303,20.0961,6168,0.0
231.715805,-1.0566,20.4617,0,0.0
231.71589699999998,-0.043899999999999995,20.6008,3084,0.0
231.71589699999998,0.5618,21.4009,3598,0.0
231.716095,-0.88,4.0595,3855,0.0
231.716095,-0.2794,4.2562999999999995,5911,0.0
231.71620199999998,0.2507,21.463300999999998,3855,0.0
231.716599,-1.269,20.252198999999997,3598,0.0
231.716705,-0.013399999999999999,19.549999,1028,0.0
231.71740699999998,-0.15389999999999998,4.3576999999999995,5911,0.0
231.717606,-0.1166,18.771299,3084,0.0
231.71800199999998,-0.3468,21.269699,5654,0.0
231.71809399999998,-1.1322999999999999,20.4436,5397,0.0
231.71809399999998,-0.7723,3.992,771,0.0
231.71809399999998,-0.2173,4.2871,2056,0.0
231.718506,-1.6671,20.065599,1028,0.0
231.718597,-0.8078,20.7248,5140,0.0
231.71890299999998,0.0038,4.4102,2056,0.0
231.719193,0.3338,21.355100999999998,0,0.0
231.719498,-1.4611999999999998,20.0408,2570,0.0
231.71980299999998,-1.3101,20.418301,2570,0.0
231.71980299999998,-0.5673,20.9102,2827,0.0
231.71989399999998,-0.42919999999999997,4.1834999999999996,3084,0.0
231.720001,-1.1638,4.2325,1028,0.0
231.720001,-0.327,21.117701,0,0.0
231.720306,-1.271,20.9284,3084,0.0
231.720306,0.6621,21.395599,2056,0.0
231.720596,-0.7836,18.892401,6425,0.0
231.720703,0.2515,21.393100999999998,2827,0.0
231.720993,-0.5142,20.658701,3598,0.0
231.721207,-1.3359999999999999,20.1754,5397,0.0
231.721298,-0.3182,20.743600999999998,0,0.0
231.721298,0.35119999999999996,21.5068,2827,0.0
231.72140499999998,-0.1235,19.5338,2570,0.0
231.721603,-1.2325,20.549298999999998,5654,0.0
231.72230499999998,-0.9662999999999999,20.561701,3598,0.0
231.72230499999998,-0.8099999999999999,20.606700999999997,8995,0.0
231.722504,-0.6912999999999999,20.7826,6425,0.0
231.722702,-0.16219999999999998,21.3785,2827,0.0
231.723007,-0.8926999999999999,20.6038,7710,0.0
231.723007,-0.8156,20.643100999999998,1799,0.0
231.72349499999999,-1.0347,4.1046,257,0.0
231.72349499999999,-0.162,4.2503,771,0.0
231.72410599999998,-0.36,21.084,7710,0.0
231.72410599999998,0.46299999999999997,21.347199999999997,5140,0.0
231.72419699999998,-1.4949,20.108100999999998,10023,0.0
231.724503,0.1573,21.330099,8995,0.0
231.725098,0.3543,21.4198,0,0.0
231.725296,-1.7543,20.235201,2570,0.0
231.72560099999998,-1.7507,20.2377,0,0.0
231.72560099999998,-1.5925,20.075001,3598,0.0
231.72560099999998,-1.5367,20.019199,6168,0.0
231.72599799999998,0.0756,21.507099,5140,0.0
231.726303,0.2693,21.243098999999997,3598,0.0
231.726395,-0.7604,18.811398999999998,7453,0.0
231.726395,-0.45499999999999996,21.0641,2570,0.0
231.7267,-1.3932,20.871499999999997,1799,0.0
231.72689799999998,-0.1788,4.402699999999999,257,0.0
231.72689799999998,0.15,21.3689,2313,0.0
231.72740199999998,-0.2017,4.3393999999999995,6682,0.0
231.72770699999998,0.6508999999999999,20.503401,0,0.0
231.727905,-0.2965,21.2878,0,0.0
231.728806,0.0127,21.433999999999997,3084,0.0
231.728897,-0.24089999999999998,21.354601,0,0.0
231.728897,0.506,21.3811,0,0.0
231.72959899999998,0.1971,18.945899999999998,4369,0.0
231.729797,-0.2642,4.3593,4883,0.0
231.72990399999998,-1.7075,20.263901,1799,0.0
231.72990399999998,-1.145,20.559998999999998,3341,0.0
231.72990399999998,-0.5443,21.028999,0,0.0
231.72990399999998,-0.319,4.2721,2056,0.0
231.72990399999998,0.6542,21.348,0,0.0
231.730698,-1.531,20.054899,0,0.0
231.730698,-1.4191,23.567100999999997,3341,0.0
231.730698,0.6757,21.4098,0,0.0
231.73080399999998,-0.0092,21.543599999999998,4883,0.0
231.73080399999998,0.1066,21.2924,6168,0.0
231.731293,-0.8233999999999999,20.611798999999998,0,0.0
231.731293,-0.6053999999999999,20.948999,4112,0.0
231.732101,0.12369999999999999,21.364599,0,0.0
231.732407,-1.4979,24.6269,16191,0.0
231.732498,-0.4185,24.453799999999998,7967,0.0
231.732498,0.43019999999999997,21.393299,0,0.0
231.732697,-1.2855999999999999,17.194,0,0.0
231.732697,-0.5055,16.267401,4883,0.0
231.732803,-1.2046,20.396299,0,0.0
231.732803,-0.5173,20.775499,5397,0.0
231.73350499999998,0.1392,18.905701,2570,0.0
231.734207,0.0664,21.4193,514,0.0
231.734299,-1.5341,20.0373,0,0.0
231.73440599999998,-0.3434,4.2364,1542,0.0
231.734695,-1.0163,20.4664,10023,0.0
231.735107,-1.2964,20.8946,2570,0.0
231.73599199999998,-0.7189,4.0746,2313,0.0
231.736496,-1.2855999999999999,23.412499999999998,3084,0.0
231.73680099999999,0.6633,20.525,2056,0.0
231.737396,0.1722,21.315599,0,0.0
231.737701,-0.5463,16.2652,1285,0.0
231.7379,0.14079999999999998,21.341499,0,0.0
231.73800699999998,0.21409999999999998,21.324499,5911,0.0
231.738602,-0.5809,21.191098999999998,5911,0.0
231.738602,0.44289999999999996,21.4282,0,0.0
231.739105,-1.4445999999999999,20.0874,0,0.0
231.73989899999998,0.315,21.3887,2570,0.0
231.740295,-0.2128,21.286199999999997,0,0.0
231.74049399999998,-1.4811999999999999,20.068399,0,0.0
231.740707,0.36729999999999996,21.406499999999998,6425,0.0
231.74079899999998,-1.4459,20.2167,4883,0.0
231.741501,-1.4448999999999999,20.308701,1028,0.0
231.741501,-0.7575999999999999,20.6698,1285,0.0
231.742203,-0.5043,21.059601,5654,0.0
231.742401,-0.12359999999999999,21.514999,5397,0.0
231.74259899999998,-1.048,22.709899999999998,2570,0.0
231.74290499999998,-0.3455,20.7537,0,0.0
231.74290499999998,0.695,22.1723,3855,0.0
231.743103,0.48,21.409499999999998,0,0.0
231.743195,-0.12229999999999999,21.474999999999998,0,0.0
231.743301,-0.1915,21.411699,0,0.0
231.74349999999998,-0.9144,20.4792,2056,0.0
231.74349999999998,-0.2874,4.4296,1028,0.0
231.74349999999998,0.5368999999999999,21.409499999999998,0,0.0
231.744095,-1.7798999999999998,24.790001,6939,0.0
231.744293,-0.5952,20.936501,0,0.0
231.745193,-0.6601,21.2871,3084,0.0
231.745407,-1.8175,20.1073,1285,0.0
231.745407,-0.10859999999999999,24.246,3598,0.0
231.745499,0.0983,21.4363,0,0.0
231.745804,-1.067,4.1394,514,0.0
231.745804,-0.43879999999999997,21.092299999999998,4112,0.0
231.745804,0.009899999999999999,18.8794,6939,0.0
231.745895,0.2372,19.424,2570,0.0
231.74650599999998,-1.6183999999999998,20.243499999999997,2570,0.0
231.74659699999998,0.6419,20.520398999999998,3598,0.0
231.746704,0.20729999999999998,21.370399,0,0.0
231.74690199999998,-1.2542,20.391399,0,0.0
231.747101,-0.9285,24.642,3598,0.0
231.747604,-0.972,20.424601,4369,0.0
231.74780299999998,-1.498,20.033500999999998,0,0.0
231.747894,-0.12279999999999999,19.509199,4112,0.0
231.74809299999998,0.3957,21.386999,0,0.0
231.748199,0.6134,21.3354,2827,0.0
231.748596,-0.8436,18.8519,0,0.0
231.74870299999998,-1.0513,20.4608,0,0.0
231.74899299999998,-1.7874999999999999,20.138099999999998,6168,0.0
231.74899299999998,-0.44439999999999996,21.238501,5654,0.0
231.7491,0.1243,21.345399999999998,0,0.0
231.74960299999998,-0.47909999999999997,16.282899999999998,7967,0.0
231.749802,-1.7945,24.802699999999998,3598,0.0
231.75010699999999,-0.1272,21.4632,0,0.0
231.750305,0.6951999999999999,21.3391,0,0.0
231.751205,-0.0056,25.006399,4626,0.0
231.75149499999998,-0.2525,21.430999999999997,0,0.0
231.751801,0.6849,22.136101,9509,0.0
231.751907,-1.6984,20.221999999999998,0,0.0
231.75199899999998,-0.8233999999999999,4.2314,2570,0.0
231.752594,-0.7512,20.6341,0,0.0
231.752701,-1.7610999999999999,20.064301,0,0.0
231.752808,-1.6657,20.048099999999998,0,0.0
231.75289899999999,0.7618999999999999,21.319401,6425,0.0
231.753998,-1.5271,20.058201,0,0.0
231.75419599999998,-0.0469,21.479,0,0.0
231.75450099999998,-1.3437999999999999,20.939698999999997,0,0.0
231.75500499999998,-0.9431999999999999,20.629499,5140,0.0
231.755203,-1.7964,20.0662,0,0.0
231.755493,-1.0707,22.747298999999998,2570,0.0
231.7556,-0.1042,20.6982,2056,0.0
231.755707,-0.8499,20.5903,0,0.0
231.75599699999998,-1.595,20.080399999999997,0,0.0
231.75599699999998,-0.8219,20.578799999999998,0,0.0
231.756104,-1.5266,20.0844,0,0.0
231.75689699999998,-1.0228,20.539499,0,0.0
231.757004,-0.8521,4.0023,4112,0.0
231.757294,-1.3092,20.2771,0,0.0
231.757401,-0.4805,20.937901,2570,0.0
231.757599,-0.8408,20.583599,0,0.0
231.757996,-0.08929999999999999,21.4776,0,0.0
231.758408,-0.37829999999999997,24.537599999999998,4883,0.0
231.758499,-0.07919999999999999,21.403,2827,0.0
231.758499,-0.0783,21.407100999999997,0,0.0
231.759399,-1.2227,20.3009,0,0.0
231.759506,-1.6243999999999998,20.2181,3855,0.0
231.75959799999998,-0.45399999999999996,4.1408,514,0.0
231.75990299999998,-1.4809999999999999,23.633699,3341,0.0
231.75990299999998,-1.4505,20.123199,0,0.0
231.760101,-0.5537,24.3871,5911,0.0
231.7603,-0.8165,18.820299,1028,0.0
231.7612,-1.4669999999999999,19.8431,2827,0.0
231.761307,-0.9806999999999999,4.0599,514,0.0
231.761597,-1.1207,20.411500999999998,0,0.0
231.761597,0.1286,18.847099,2570,0.0
231.76170299999998,0.4905,21.430699999999998,7710,0.0
231.76179499999998,-0.9289,20.559400999999998,0,0.0
231.761902,-0.07329999999999999,21.538401,5140,0.0
231.762405,-0.043,19.5431,0,0.0
231.762497,0.045599999999999995,18.783898999999998,0,0.0
231.762802,-0.1621,21.318500999999998,2313,0.0
231.763199,-1.4664,20.056998999999998,7196,0.0
231.76350399999998,-1.4819,20.161300999999998,0,0.0
231.763702,-0.8906999999999999,20.5509,0,0.0
231.76440399999998,-1.5037,23.444799,3341,0.0
231.76449599999998,-0.8946,4.1941,1285,0.0
231.764603,-0.9614999999999999,20.481299999999997,4369,0.0
231.764694,-0.4239,22.705399999999997,2313,0.0
231.764999,-1.5651,20.119801,0,0.0
231.765106,-0.7352,21.403601,1542,0.0
231.765106,-0.29059999999999997,4.219399999999999,4112,0.0
231.76530499999998,-0.008799999999999999,21.409900999999998,2056,0.0
231.765594,-0.6083,21.183901,0,0.0
231.765594,-0.0516,21.427899999999998,0,0.0
231.76570099999998,0.575,21.9226,2313,0.0
231.7659,0.7569,21.398001,2056,0.0
231.76600599999998,-1.307,20.927099,2827,0.0
231.766098,-1.5456999999999999,24.487499,3341,0.0
231.766098,-0.9392999999999999,24.132799,5654,0.0
231.766403,-1.0314999999999999,20.4174,5654,0.0
231.766403,-0.0892,21.377501,0,0.0
231.7668,-1.3139999999999998,20.283001,3855,0.0
231.76719699999998,0.0783,21.4711,4112,0.0
231.76750199999998,-1.1121999999999999,20.4785,0,0.0
231.76780699999998,-1.6149,20.366899,2570,0.0
231.76809699999998,-1.7785,20.005399999999998,6939,0.0
231.76840199999998,-1.0984,20.444499999999998,0,0.0
231.76840199999998,-0.5282,21.022199999999998,4369,0.0
231.76849399999998,-0.7299,4.05,3341,0.0
231.7686,-0.19649999999999998,4.4166,1285,0.0
231.76870699999998,-0.5572,21.173401,3855,0.0
231.76930199999998,-1.7027999999999999,20.1957,2570,0.0
231.769501,-1.8145,20.216101,5397,0.0
231.770401,-1.1971,20.309099,5140,0.0
231.770905,-1.2754999999999999,23.597400999999998,4112,0.0
231.770905,-0.051,21.4396,0,0.0
231.770996,-1.0005,20.557301,2570,0.0
231.77110299999998,-0.0206,18.9209,3084,0.0
231.77119399999998,-1.4719,20.011,5397,0.0
231.771393,-1.2819,20.395901,4626,0.0
231.7715,-1.2723,20.301001,0,0.0
231.771606,0.10679999999999999,21.445601,0,0.0
231.77209499999998,-0.9569,20.6052,0,0.0
231.772202,-0.1517,4.3937,3855,0.0
231.772797,-0.2993,21.246900999999998,4112,0.0
231.774002,-0.4113,21.380599999999998,5140,0.0
231.774307,-1.5312999999999999,20.074301,0,0.0
231.774506,-0.9025,4.0445,4626,0.0
231.77479599999998,0.7,21.386999,2313,0.0
231.774902,-0.7813,20.769699,4626,0.0
231.774902,0.0073999999999999995,19.4893,4369,0.0
231.775299,-1.4479,20.1208,0,0.0
231.77540599999998,-0.86,4.1207,1799,0.0
231.775497,-1.0749,20.3701,5397,0.0
231.775497,-0.501,21.104699999999998,3855,0.0
231.775604,-0.001,21.3053,6939,0.0
231.776093,-0.8407,18.8808,2056,0.0
231.776199,-1.0025,20.645699999999998,4626,0.0
231.776505,-1.8126,20.262501,0,0.0
231.77659599999998,-0.045,21.4503,6939,0.0
231.776703,0.6839,20.566098999999998,4112,0.0
231.776794,0.5968,20.481001,0,0.0
231.77690099999998,-1.1709,20.4359,3855,0.0
231.77699299999998,-1.3499999999999999,20.2666,1028,0.0
231.77720599999998,-0.5534,4.2025999999999994,1285,0.0
231.777695,-0.8080999999999999,4.0447,1799,0.0
231.778,-1.472,20.0242,0,0.0
231.778198,-0.6732,20.659401,3341,0.0
231.77839699999998,-0.3326,4.2801,6682,0.0
231.778595,-1.2774999999999999,20.303499,0,0.0
231.77870199999998,-1.2303,20.2836,3084,0.0
231.77870199999998,-1.1643999999999999,20.3521,3855,0.0
231.77969399999998,-0.8785999999999999,20.5931,0,0.0
231.780106,-1.3413,20.309299,0,0.0
231.780197,-0.3126,4.327,1799,0.0
231.780304,-1.5572,23.555799,1542,0.0
231.781006,-1.0940999999999999,20.440201,2570,0.0
231.781097,-1.6041999999999998,20.054501,5911,0.0
231.781097,-1.4595,20.116899,5397,0.0
231.781097,-0.6234999999999999,18.8741,1028,0.0
231.781204,-0.2768,4.293699999999999,4626,0.0
231.781601,-0.0491,19.544901,2056,0.0
231.782196,-1.8449,20.2763,3084,0.0
231.78269999999998,-1.4377,20.088499,0,0.0
231.782806,-0.4275,4.2065,5654,0.0
231.782806,-0.38939999999999997,21.3589,0,0.0
231.783096,-0.8281,22.6558,6939,0.0
231.783096,-0.0635,19.527901,0,0.0
231.783203,-0.12869999999999998,4.3631,771,0.0
231.783997,-0.8089,18.866198999999998,1799,0.0
231.784103,0.0482,25.1206,4883,0.0
231.784103,0.6254,21.4144,3598,0.0
231.78419499999998,0.1255,18.8263,3598,0.0
231.784393,-0.5024,4.1533999999999995,771,0.0
231.78480499999998,-0.218,21.464001,4112,0.0
231.785004,-1.5361,20.0763,6682,0.0
231.78570599999998,-0.13749999999999998,4.2783999999999995,3598,0.0
231.785904,-0.7563,20.628,0,0.0
231.786102,-0.34299999999999997,21.004199999999997,5911,0.0
231.786499,-0.6954,18.8002,0,0.0
231.78669699999998,-1.7207,19.988799999999998,0,0.0
231.786804,-1.5010999999999999,20.0488,0,0.0
231.787003,-0.5436,21.314501,4112,0.0
231.787399,-1.5860999999999998,20.1691,0,0.0
231.787796,-0.2112,4.3605,3084,0.0
231.78810099999998,-1.3689,20.1933,3084,0.0
231.788605,0.4481,21.328599999999998,4112,0.0
231.788803,-0.5141,21.1989,0,0.0
231.788895,-0.35469999999999996,4.207199999999999,1799,0.0
231.7892,-1.1967999999999999,20.428300999999998,0,0.0
231.78939799999998,-1.6741,20.048,2313,0.0
231.78939799999998,-0.23829999999999998,21.334498999999997,4626,0.0
231.789505,-0.1377,21.455199999999998,3598,0.0
231.789597,-0.2955,21.462699999999998,4112,0.0
231.789795,-1.4347999999999999,20.9137,2827,0.0
231.790497,0.2561,25.428698999999998,3598,0.0
231.790604,-0.0533,4.2722999999999995,4626,0.0
231.79110699999998,-1.0018,17.335199,1799,0.0
231.79110699999998,-0.9707,20.594299,0,0.0
231.791595,-0.8004,4.0973,1542,0.0
231.791595,-0.6394,4.2692,771,0.0
231.791702,0.3896,21.840099,4369,0.0
231.791901,-1.0422,20.402599,0,0.0
231.791901,-0.4618,16.312400999999998,771,0.0
231.792496,-0.6141,21.3251,0,0.0
231.792496,-0.47919999999999996,21.182699,0,0.0
231.79260299999999,-1.8377999999999999,20.126499,3084,0.0
231.79260299999999,-1.5674,20.014699999999998,4112,0.0
231.792801,-0.7831,20.615101,771,0.0
231.793503,-1.7714999999999999,20.082399,4883,0.0
231.793793,-0.8595999999999999,20.5825,3598,0.0
231.79420499999998,-0.696,18.826401,2313,0.0
231.79420499999998,-0.2678,24.910601,3598,0.0
231.794601,0.5799,21.3521,6682,0.0
231.794998,-1.3427,23.4,6425,0.0
231.794998,-0.9808,20.4655,0,0.0
231.794998,-0.19899999999999998,20.819499999999998,4626,0.0
231.795303,-0.5343,4.2412,2313,0.0
231.795502,-1.4198,20.191401,0,0.0
231.79569999999998,-1.1721,20.4636,0,0.0
231.795807,0.6516,21.3904,0,0.0
231.79600499999998,-0.36369999999999997,21.3155,5654,0.0
231.796295,-1.7463,20.029498999999998,0,0.0
231.796295,-1.4015,20.129600999999997,6425,0.0
231.796295,-0.5863999999999999,4.2423,771,0.0
231.796799,-1.099,20.479799,3598,0.0
231.79690599999998,0.062,21.382400999999998,3341,0.0
231.797195,-0.5029,4.1899,3084,0.0
231.797394,0.3641,20.615199999999998,1285,0.0
231.79789699999998,-0.6542,21.337601,2827,0.0
231.79789699999998,0.5560999999999999,21.910899999999998,3341,0.0
231.798294,-0.2057,4.2886,8481,0.0
231.79849199999998,-0.0007999999999999999,18.819499999999998,15420,0.0
231.798599,-1.69,20.008499,4626,0.0
231.799103,-0.5101,21.175501,3341,0.0
231.79930099999999,9.999999999999999e-05,21.5401,5140,0.0
231.79969799999998,-1.7807,20.126801,5140,0.0
231.800095,-0.1378,21.441098999999998,0,0.0
231.800201,-1.1094,20.472099,0,0.0
231.80029299999998,-0.0182,18.9214,0,0.0
231.800995,-1.5999999999999999,20.255399999999998,1285,0.0
231.8013,0.00039999999999999996,19.511801,0,0.0
231.801605,-1.8000999999999998,20.047501,0,0.0
231.801605,-0.2498,21.492200999999998,0,0.0
231.801605,0.08299999999999999,19.447599,2313,0.0
231.80180399999998,-1.1628,17.1043,4112,0.0
231.80180399999998,-0.8351999999999999,20.5825,0,0.0
231.80180399999998,0.6175999999999999,20.506598999999998,7196,0.0
231.802002,-0.2507,4.4529,1285,0.0
231.8022,-1.1415,22.697599,2570,0.0
231.80230699999998,-0.3705,21.077299,5397,0.0
231.80239899999998,0.0833,21.549801,3598,0.0
231.802505,0.2973,25.266399,4112,0.0
231.802902,-1.0147,20.542101,2570,0.0
231.803406,-0.5441,21.224000999999998,2827,0.0
231.803497,-0.2611,4.1555,2827,0.0
231.803802,-0.4361,21.283199,4883,0.0
231.803802,0.0295,19.4907,0,0.0
231.804092,-0.4438,21.324699,4369,0.0
231.804092,-0.19319999999999998,20.7684,0,0.0
231.804398,-0.5257999999999999,21.278399999999998,4112,0.0
231.80450399999998,0.247,21.745701,6939,0.0
231.804596,-1.7365,20.202101,4883,0.0
231.80509899999998,-0.3065,20.696301,0,0.0
231.80540499999998,0.0465,18.863701,2570,0.0
231.80540499999998,0.763,22.0958,5397,0.0
231.80599999999998,-0.4891,21.1887,0,0.0
231.80630499999998,-0.6221,4.1873,771,0.0
231.806595,0.5263,21.9772,9509,0.0
231.806793,0.4062,25.320899999999998,3341,0.0
231.80729699999998,0.7031999999999999,22.200499999999998,6425,0.0
231.807602,-1.6393,20.152200999999998,0,0.0
231.80819699999998,-0.9312999999999999,20.598399999999998,771,0.0
231.808304,-0.3336,21.459699999999998,2827,0.0
231.808395,0.6316999999999999,20.523198999999998,0,0.0
231.80870099999999,-1.545,20.1721,1799,0.0
231.80870099999999,-1.4388999999999998,20.254801,1285,0.0
231.808807,0.39949999999999997,21.383499,3598,0.0
231.809204,-1.5844,20.155099999999997,2570,0.0
231.809204,-0.26689999999999997,20.735901,1799,0.0
231.80940199999998,-0.1956,20.703699,5397,0.0
231.809601,-0.6538999999999999,18.8267,4369,0.0
231.80969199999998,-1.509,21.1054,13878,0.0
231.80969199999998,-0.7077,20.709699999999998,2827,0.0
231.80969199999998,0.0014,19.611601,1028,0.0
231.80990599999998,0.2437,21.2924,1799,0.0
231.810104,-0.5607,4.1053,2570,0.0
231.810196,-0.9929,4.1057,2056,0.0
231.81120299999998,0.44229999999999997,21.337999,0,0.0
231.811295,-1.4987,20.2293,2570,0.0
231.8116,0.015099999999999999,21.437099,3084,0.0
231.811996,-1.8022,20.0888,0,0.0
231.81210299999998,-1.6985,19.9972,0,0.0
231.81210299999998,-1.6353,20.0613,0,0.0
231.81210299999998,-0.6003999999999999,21.1619,0,0.0
231.81269799999998,-0.11009999999999999,21.4396,0,0.0
231.81309499999998,-1.1447,20.506901,5140,0.0
231.8134,-1.0145,20.5385,0,0.0
231.813507,-0.038599999999999995,19.587601,0,0.0
231.81359899999998,-0.3719,4.3458,771,0.0
231.81399499999998,-0.6496,21.217699,2827,0.0
231.815094,0.7691,21.3664,0,0.0
231.815598,-0.1658,21.4123,5654,0.0
231.81570399999998,-1.7727,20.063,0,0.0
231.816299,0.4855,21.487199999999998,2056,0.0
231.816498,-1.5793,24.201,5397,0.0
231.816498,-0.5493,4.074,2056,0.0
231.816498,0.038599999999999995,21.5144,0,0.0
231.817093,-0.729,18.790599999999998,0,0.0
231.817307,-0.9340999999999999,20.558901,0,0.0
231.818207,-0.18739999999999998,20.642599,3341,0.0
231.819107,-0.27949999999999997,20.668599999999998,3341,0.0
231.819794,-1.5196999999999998,20.0683,0,0.0
231.819794,-0.42819999999999997,21.3634,0,0.0
231.820099,-1.9203,25.392401,7196,0.0
231.820099,-0.7203999999999999,20.666598999999998,771,0.0
231.82020599999998,0.0612,21.589299999999998,3855,0.0
231.82029699999998,-0.6688,18.8295,0,0.0
231.820694,-0.9356,20.590999999999998,0,0.0
231.822205,-0.2206,4.1974,2313,0.0
231.82240299999998,-0.5206,16.252299999999998,5140,0.0
231.82240299999998,0.6597999999999999,20.560301,0,0.0
231.822601,0.0788,24.197799999999997,4626,0.0
231.82299799999998,-1.7411999999999999,20.0963,0,0.0
231.82299799999998,0.49839999999999995,21.389,4112,0.0
231.823105,-0.9193,21.206699,3341,0.0
231.823196,-1.4803,20.1982,3084,0.0
231.82330299999998,-0.2357,20.8307,0,0.0
231.82339499999998,-0.9274,20.577800999999997,0,0.0
231.823502,-0.3059,20.7208,0,0.0
231.8237,-1.2373999999999998,23.466499,3341,0.0
231.823807,-0.0503,21.4727,0,0.0
231.824493,-1.4246999999999999,20.163,0,0.0
231.825394,-0.6604,18.867200999999998,0,0.0
231.825394,-0.1739,20.6719,0,0.0
231.82549999999998,-0.5887,21.3389,0,0.0
231.825607,-0.7409,18.8221,0,0.0
231.826294,-0.5828,18.838499,6168,0.0
231.82640099999998,-0.5625,20.7087,0,0.0
231.826508,-0.9138,20.521099,0,0.0
231.826797,-0.1919,4.3925,6682,0.0
231.82699599999998,-0.9587,4.1175999999999995,4883,0.0
231.82730099999998,-0.2835,20.718398999999998,0,0.0
231.827606,0.5605,21.393299,0,0.0
231.82820099999998,-1.2254,17.1936,3084,0.0
231.82820099999998,-0.1714,24.368401,2827,0.0
231.828293,0.23229999999999998,21.217399999999998,8481,0.0
231.82850599999998,-0.256,21.4032,0,0.0
231.828598,0.5777,21.344600999999997,0,0.0
231.828903,-0.0161,21.499900999999998,0,0.0
231.828995,-0.5317,21.1866,0,0.0
231.829498,-0.4724,24.656,4626,0.0
231.829803,-0.5565,16.3167,0,0.0
231.829895,-1.5786,21.0525,3855,0.0
231.83000199999998,-0.3922,4.3275999999999994,514,0.0
231.83009299999998,-1.7366,20.1376,0,0.0
231.83009299999998,0.058699999999999995,21.4118,0,0.0
231.83059699999998,-1.7657999999999998,20.1387,0,0.0
231.830704,-0.5432,20.8766,2570,0.0
231.8311,-1.4822,20.234301,0,0.0
231.8311,0.46299999999999997,21.4739,2827,0.0
231.83120699999998,-1.8232,19.987,4112,0.0
231.831406,-1.3193,23.6294,3341,0.0
231.83180199999998,0.0583,18.7908,2313,0.0
231.832199,0.0672,21.383699,0,0.0
231.832397,-0.5069,20.762501,0,0.0
231.832901,-1.406,20.0403,3598,0.0
231.83329799999998,-0.5778,20.7507,0,0.0
231.833405,-0.1858,21.494699,0,0.0
231.833496,-0.57,21.318399,0,0.0
231.833893,-0.9083,20.522199999999998,0,0.0
231.834,-1.5857999999999999,20.226601,9509,0.0
231.834702,-0.20759999999999998,21.469101,8738,0.0
231.834793,-0.4206,21.4382,5397,0.0
231.835693,-0.2978,21.424801,0,0.0
231.835907,-1.6675,20.119498999999998,0,0.0
231.83639499999998,0.002,21.4776,0,0.0
231.836502,-0.9542999999999999,20.838300999999998,4626,0.0
231.836899,0.027299999999999998,18.8207,5654,0.0
231.837006,-0.479,4.201099999999999,771,0.0
231.83790599999998,0.7842,22.244699,3084,0.0
231.837997,-0.1805,21.358100999999998,0,0.0
231.83819599999998,-0.47469999999999996,20.749299999999998,1799,0.0
231.838303,-0.2175,20.954598999999998,4112,0.0
231.838394,-0.15639999999999998,4.4033999999999995,1028,0.0
231.838394,0.1966,21.503099,3341,0.0
231.83850099999998,-0.3936,20.855801,7196,0.0
231.838593,-0.5162,21.0266,3341,0.0
231.838699,-0.829,20.6633,1285,0.0
231.83940099999998,-1.5803,23.946199,5911,0.0
231.840103,-1.5426,20.985599999999998,2827,0.0
231.84179699999999,-0.3712,21.1455,0,0.0
231.841995,0.0837,21.546,4112,0.0
231.84210199999998,-0.9495,4.0393,257,0.0
231.84210199999998,0.5468,21.3498,2827,0.0
231.842499,-0.2539,21.392899999999997,3084,0.0
231.84309399999998,-1.5051999999999999,19.8808,3341,0.0
231.84339899999998,-0.030199999999999998,19.552601,3855,0.0
231.843796,-0.6870999999999999,18.8573,2313,0.0
231.843796,-0.6409,21.303100999999998,514,0.0
231.84390299999998,0.5369999999999999,21.407801,2313,0.0
231.845093,-1.9489999999999998,25.406699999999997,7453,0.0
231.845306,-1.0581,20.7124,2570,0.0
231.845306,-0.9023,20.592501,7967,0.0
231.845505,-1.5098,20.316299,3084,0.0
231.845505,-0.351,21.208401,3084,0.0
231.84609999999998,-1.8248,20.270699999999998,5140,0.0
231.84609999999998,0.2595,24.701598999999998,2313,0.0
231.846207,-0.6577999999999999,18.883699,2827,0.0
231.846298,-0.7695,20.606700999999997,5654,0.0
231.84640499999998,-1.2133,20.153,1799,0.0
231.846893,-1.7594999999999998,20.146299,2570,0.0
231.84699999999998,-0.6245999999999999,20.798299999999998,1799,0.0
231.847504,-0.5587,20.749299999999998,0,0.0
231.847794,-0.8134,20.623199,0,0.0
231.84789999999998,-0.020999999999999998,18.871098999999997,1542,0.0
231.848099,-0.5384,20.7607,0,0.0
231.84849499999999,-1.4594,20.271299,12079,0.0
231.848694,-0.7199,20.665501,6168,0.0
231.84880099999998,-1.6598,20.2528,3084,0.0
231.848907,-1.5015999999999998,20.264999,0,0.0
231.84910599999998,-0.7393,18.813499,3855,0.0
231.84939599999998,-0.4094,21.430699999999998,6939,0.0
231.84939599999998,0.7845,22.123199,3855,0.0
231.849899,-0.7782,20.7202,3341,0.0
231.85000599999998,-1.2477,23.5655,4112,0.0
231.85000599999998,-1.0737999999999999,20.444499999999998,1542,0.0
231.85000599999998,-0.2183,21.305799,2570,0.0
231.850098,0.1615,21.535,7710,0.0
231.850296,-0.22219999999999998,4.2124,3084,0.0
231.85099799999998,0.0933,21.392699999999998,3855,0.0
231.851303,-1.664,20.15,0,0.0
231.85180699999998,-0.9047999999999999,22.648899,3341,0.0
231.852905,0.5075,21.369899999999998,0,0.0
231.852997,0.607,20.500299,4883,0.0
231.8535,-0.18839999999999998,20.700398999999997,2827,0.0
231.853806,-0.5013,4.1269,771,0.0
231.853897,-1.3889,20.2458,3341,0.0
231.854706,-1.1034,20.505599999999998,12850,0.0
231.854706,-0.6896,18.757099,4112,0.0
231.85490399999998,-1.8157999999999999,20.144399999999997,5140,0.0
231.85510299999999,-0.2228,4.3376,1028,0.0
231.85580399999998,0.0786,21.444799,3084,0.0
231.856506,-0.9198999999999999,20.533701,6425,0.0
231.856506,-0.3938,19.424101,771,0.0
231.856796,-1.1763,17.186799999999998,1799,0.0
231.856903,-0.607,20.760400999999998,0,0.0
231.857193,0.0183,21.479401,4112,0.0
231.857407,-0.5730999999999999,4.0587,5654,0.0
231.85789499999998,-0.9919,20.4471,0,0.0
231.85789499999998,-0.40909999999999996,21.161699,2570,0.0
231.85819999999998,-0.35159999999999997,24.618299,9766,0.0
231.85850499999998,0.6367999999999999,21.921899999999997,2056,0.0
231.858704,-0.5802999999999999,21.343999999999998,7196,0.0
231.858902,-0.3533,4.2962,6939,0.0
231.85909999999998,-1.4353,20.2033,7967,0.0
231.85909999999998,0.5953999999999999,21.3528,3855,0.0
231.859207,-0.1983,4.2779,7196,0.0
231.85940599999998,-0.6516,20.743799,2827,0.0
231.86000099999998,0.6014999999999999,22.1355,4369,0.0
231.860504,-0.5785,16.252299999999998,1542,0.0
231.860794,-0.5424,4.1562,3341,0.0
231.860794,-0.0963,21.378901,0,0.0
231.861099,-0.9839,20.455600999999998,0,0.0
231.861099,-0.0645,21.4524,3341,0.0
231.861603,-0.36169999999999997,21.4118,2056,0.0
231.86189299999998,-0.1629,21.4153,0,0.0
231.86219799999998,-0.5841,20.717299999999998,1285,0.0
231.86219799999998,0.5021,21.3493,0,0.0
231.86250299999998,-1.6915,20.132400999999998,3341,0.0
231.86250299999998,-0.40609999999999996,24.721398999999998,2570,0.0
231.862701,-0.8312999999999999,4.0987,1028,0.0
231.8629,-0.12179999999999999,21.161500999999998,2570,0.0
231.863205,-0.6781999999999999,20.740199999999998,0,0.0
231.863205,-0.3593,4.2056,7710,0.0
231.863495,-1.6621,20.1007,0,0.0
231.86369299999998,0.30219999999999997,25.4098,3598,0.0
231.86390699999998,0.651,21.370001,1028,0.0
231.864502,0.1639,25.036199999999997,2827,0.0
231.8647,-0.38339999999999996,4.1335999999999995,1285,0.0
231.8647,-0.0516,21.5676,5140,0.0
231.86480699999998,-1.6159,20.127599999999997,5140,0.0
231.865005,-0.2716,4.273499999999999,4626,0.0
231.865295,-1.0291,20.413601,8738,0.0
231.865295,-0.7531,20.6882,0,0.0
231.865295,0.0053,21.412701,7453,0.0
231.865601,-0.0569,4.266,2313,0.0
231.865707,-0.43079999999999996,4.143,1542,0.0
231.86579899999998,-1.6079999999999999,23.527200999999998,3084,0.0
231.86579899999998,-0.26289999999999997,4.1349,1542,0.0
231.865997,0.0477,21.4195,0,0.0
231.866806,-0.1296,4.275799999999999,4626,0.0
231.86700399999998,0.7428,21.373699,5654,0.0
231.867096,0.07289999999999999,24.9849,4369,0.0
231.867203,-1.139,23.523701,1799,0.0
231.867294,-0.5898,16.288899999999998,2827,0.0
231.867401,-1.0493,20.441601,0,0.0
231.86790499999998,-0.9064,20.5718,1799,0.0
231.868195,-0.527,3.9960999999999998,1799,0.0
231.868195,0.0287,21.4291,0,0.0
231.86849999999998,-0.5539999999999999,4.1659,5654,0.0
231.868698,-1.1875,22.9237,11822,0.0
231.86889599999998,-0.44079999999999997,4.193,771,0.0
231.869003,0.0195,18.848101,0,0.0
231.869095,-0.5831999999999999,21.470301,2827,0.0
231.86939999999998,-0.1641,20.839001,3598,0.0
231.86939999999998,0.7009,21.3451,2313,0.0
231.869507,-1.2107999999999999,17.125601,1542,0.0
231.869598,0.126,19.460898999999998,1028,0.0
231.870193,-0.8451,20.669901,3341,0.0
231.87069699999998,-0.5278999999999999,20.834899999999998,2056,0.0
231.870804,-1.0912,22.691,3084,0.0
231.870895,-0.5935,18.872601,2570,0.0
231.870895,-0.3181,20.6759,7453,0.0
231.871094,-0.0223,21.4561,0,0.0
231.87150599999998,-1.3319999999999999,23.6647,1285,0.0
231.87150599999998,-1.0867,20.4835,0,0.0
231.87159699999998,-0.6478999999999999,19.007998999999998,1028,0.0
